9.9500000e+002  9.9500000e+002  9.9500000e+002  9.9500000e+002  9.9500000e+002  9.9500000e+002  9.9500000e+002  9.9500000e+002  1.0000000e+003  9.9700000e+002  9.9500000e+002  9.9400000e+002  9.9200000e+002  9.9300000e+002  9.9200000e+002  9.8900000e+002  9.8800000e+002  9.8700000e+002  9.9000000e+002  9.9300000e+002  9.8900000e+002  9.8800000e+002  9.8600000e+002  9.8800000e+002  9.9300000e+002  9.9700000e+002  9.9300000e+002  9.8600000e+002  9.8300000e+002  9.7700000e+002  9.7900000e+002  9.7500000e+002  9.7400000e+002  9.7200000e+002  9.6900000e+002  9.6900000e+002  9.6900000e+002  9.7100000e+002  9.7300000e+002  9.7100000e+002  9.6900000e+002  9.6600000e+002  9.6600000e+002  9.6600000e+002  9.6600000e+002  9.6700000e+002  9.6500000e+002  9.6300000e+002  9.6700000e+002  9.6900000e+002  9.6900000e+002  9.6800000e+002  9.6700000e+002  9.6300000e+002  9.6600000e+002  9.6400000e+002  9.6800000e+002  9.6600000e+002  9.6400000e+002  9.6100000e+002  9.6000000e+002  9.5700000e+002  9.5200000e+002  9.4700000e+002  9.4700000e+002  9.4300000e+002  9.3300000e+002  9.2700000e+002  9.2700000e+002  9.3900000e+002  9.5800000e+002  9.8000000e+002  1.0100000e+003  1.0480000e+003  1.0990000e+003  1.1480000e+003  1.1800000e+003  1.1920000e+003  1.1770000e+003  1.1280000e+003  1.0580000e+003  9.9100000e+002  9.5100000e+002  9.3700000e+002  9.3900000e+002  9.5000000e+002  9.5800000e+002  9.5900000e+002  9.5700000e+002  9.5500000e+002  9.5800000e+002  9.5900000e+002  9.6100000e+002  9.6200000e+002  9.6000000e+002  9.5700000e+002  9.5600000e+002  9.5900000e+002  9.5500000e+002  9.5700000e+002  9.5800000e+002  9.5700000e+002  9.5800000e+002  9.5900000e+002  9.5800000e+002  9.5800000e+002  9.5500000e+002  9.5300000e+002  9.5700000e+002  9.5900000e+002  9.6300000e+002  9.6000000e+002  9.6000000e+002  9.5800000e+002  9.5600000e+002  9.5700000e+002  9.5600000e+002  9.5500000e+002  9.5300000e+002  9.5300000e+002  9.5600000e+002  9.5800000e+002  9.5800000e+002  9.5800000e+002  9.5600000e+002  9.5400000e+002  9.5900000e+002  9.5900000e+002  9.5800000e+002  9.5800000e+002  9.5700000e+002  9.5700000e+002  9.5600000e+002  9.5800000e+002  9.5600000e+002  9.5400000e+002  9.5300000e+002  9.5400000e+002  9.5500000e+002  9.5800000e+002  9.6000000e+002  9.5700000e+002  9.5800000e+002  9.5500000e+002  9.5800000e+002  9.5700000e+002  9.5700000e+002  9.5500000e+002  9.5500000e+002  9.5300000e+002  9.5600000e+002  9.5600000e+002  9.5700000e+002  9.5800000e+002  9.5400000e+002  9.5400000e+002  9.5500000e+002  9.5700000e+002  9.5700000e+002  9.5700000e+002  9.5400000e+002  9.5300000e+002  9.5300000e+002  9.5500000e+002  9.5500000e+002  9.5700000e+002  9.5400000e+002  9.5200000e+002  9.5200000e+002  9.5200000e+002  9.5100000e+002  9.5200000e+002  9.5000000e+002  9.4700000e+002  9.5000000e+002  9.5200000e+002  9.5300000e+002  9.5200000e+002  9.4900000e+002  9.4900000e+002  9.5100000e+002  9.5100000e+002  9.5200000e+002  9.5200000e+002  9.5100000e+002  9.5000000e+002  9.5300000e+002  9.5800000e+002  9.5900000e+002  9.5900000e+002  9.5700000e+002  9.5600000e+002  9.6100000e+002  9.6400000e+002  9.6400000e+002  9.6600000e+002  9.6500000e+002  9.6600000e+002  9.6700000e+002  9.6900000e+002  9.7300000e+002  9.7400000e+002  9.7400000e+002  9.7100000e+002  9.7300000e+002  9.7500000e+002  9.7800000e+002  9.7500000e+002  9.7500000e+002  9.7300000e+002  9.7300000e+002  9.7600000e+002  9.7400000e+002  9.7300000e+002  9.7500000e+002  9.7300000e+002  9.7400000e+002  9.7400000e+002  9.7100000e+002  9.7200000e+002  9.7200000e+002  9.7100000e+002  9.7000000e+002  9.7100000e+002  9.7200000e+002  9.6900000e+002  9.6800000e+002  9.6600000e+002  9.6900000e+002  9.7000000e+002  9.7200000e+002  9.6800000e+002  9.6800000e+002  9.6700000e+002  9.6900000e+002  9.6900000e+002  9.7100000e+002  9.7000000e+002  9.6700000e+002  9.6600000e+002  9.6800000e+002  9.6900000e+002  9.6700000e+002  9.6800000e+002  9.6400000e+002  9.6400000e+002  9.6300000e+002  9.6500000e+002  9.6400000e+002  9.6200000e+002  9.6200000e+002  9.6300000e+002  9.6500000e+002  9.6700000e+002  9.6700000e+002  9.6600000e+002  9.6500000e+002  9.6200000e+002  9.6600000e+002  9.6500000e+002  9.6400000e+002  9.6300000e+002  9.6200000e+002  9.5900000e+002  9.6200000e+002  9.6400000e+002  9.6600000e+002  9.6200000e+002  9.5900000e+002  9.5800000e+002  9.6100000e+002  9.6400000e+002  9.6300000e+002  9.6200000e+002  9.6000000e+002  9.5800000e+002  9.5900000e+002  9.6100000e+002  9.6200000e+002  9.6300000e+002  9.6300000e+002  9.6200000e+002  9.6400000e+002  9.6300000e+002  9.6600000e+002  9.6400000e+002  9.6400000e+002  9.6300000e+002  9.6300000e+002  9.6600000e+002  9.6800000e+002  9.6500000e+002  9.6300000e+002  9.6100000e+002  9.6300000e+002  9.6500000e+002  9.6600000e+002  9.6800000e+002  9.7000000e+002  9.6900000e+002  9.6900000e+002  9.7000000e+002  9.7400000e+002  9.7400000e+002  9.7300000e+002  9.7900000e+002  9.8000000e+002  9.8300000e+002  9.8400000e+002  9.8300000e+002  9.8100000e+002  9.7800000e+002  9.8000000e+002  9.7900000e+002  9.7900000e+002  9.7900000e+002  9.7800000e+002  9.7700000e+002  9.7600000e+002  9.7700000e+002  9.8000000e+002  9.8200000e+002  9.8300000e+002  9.7500000e+002  9.6700000e+002  9.6700000e+002  9.6400000e+002  9.6200000e+002  9.5800000e+002  9.5800000e+002  9.5900000e+002  9.6100000e+002  9.6000000e+002  9.6100000e+002  9.5900000e+002  9.5600000e+002  9.5500000e+002  9.5600000e+002  9.5600000e+002  9.5400000e+002  9.5500000e+002  9.5300000e+002  9.5800000e+002  9.5700000e+002  9.5800000e+002  9.6000000e+002  9.5500000e+002  9.5300000e+002  9.5600000e+002  9.5800000e+002  9.5900000e+002  9.5800000e+002  9.5400000e+002  9.5100000e+002  9.5200000e+002  9.4800000e+002  9.3900000e+002  9.3500000e+002  9.2900000e+002  9.2200000e+002  9.1700000e+002  9.2300000e+002  9.4100000e+002  9.6400000e+002  9.9200000e+002  1.0210000e+003  1.0710000e+003  1.1220000e+003  1.1680000e+003  1.1990000e+003  1.2120000e+003  1.2050000e+003  1.1750000e+003  1.1220000e+003  1.0570000e+003  1.0020000e+003  9.7000000e+002  9.4600000e+002  9.3400000e+002  9.2900000e+002  9.3300000e+002  9.3900000e+002  9.4600000e+002  9.4600000e+002  9.4700000e+002  9.4600000e+002  9.4800000e+002  9.4800000e+002  9.4800000e+002  9.4500000e+002  9.4700000e+002  9.4700000e+002  9.4700000e+002  9.4900000e+002  9.4500000e+002  9.4200000e+002  9.4200000e+002  9.4400000e+002  9.4500000e+002  9.4600000e+002  9.4300000e+002  9.4500000e+002  9.4700000e+002  9.4900000e+002  9.4600000e+002  9.4600000e+002  9.4300000e+002  9.4200000e+002  9.4200000e+002  9.4600000e+002  9.4600000e+002  9.4500000e+002  9.4300000e+002  9.4100000e+002  9.4400000e+002  9.4200000e+002  9.4300000e+002  9.4200000e+002  9.4100000e+002  9.4200000e+002  9.4400000e+002  9.4400000e+002  9.4500000e+002  9.4600000e+002  9.4300000e+002  9.4200000e+002  9.4600000e+002  9.4600000e+002  9.4700000e+002  9.4700000e+002  9.4200000e+002  9.4300000e+002  9.4500000e+002  9.4600000e+002  9.4900000e+002  9.4600000e+002  9.4500000e+002  9.4200000e+002  9.4400000e+002  9.4600000e+002  9.4600000e+002  9.4700000e+002  9.4300000e+002  9.4100000e+002  9.4100000e+002  9.4400000e+002  9.4500000e+002  9.4300000e+002  9.4100000e+002  9.4000000e+002  9.4000000e+002  9.4200000e+002  9.4100000e+002  9.3900000e+002  9.4000000e+002  9.3700000e+002  9.3800000e+002  9.3800000e+002  9.4000000e+002  9.3800000e+002  9.3400000e+002  9.3300000e+002  9.3400000e+002  9.3700000e+002  9.3500000e+002  9.3400000e+002  9.3300000e+002  9.3000000e+002  9.3200000e+002  9.3300000e+002  9.3400000e+002  9.3300000e+002  9.3000000e+002  9.2900000e+002  9.3200000e+002  9.3400000e+002  9.3500000e+002  9.3600000e+002  9.3700000e+002  9.3600000e+002  9.4200000e+002  9.4500000e+002  9.5000000e+002  9.5100000e+002  9.5200000e+002  9.5100000e+002  9.5600000e+002  9.5900000e+002  9.6100000e+002  9.6000000e+002  9.5800000e+002  9.5800000e+002  9.6000000e+002  9.6200000e+002  9.6400000e+002  9.6400000e+002  9.6000000e+002  9.6000000e+002  9.6100000e+002  9.6300000e+002  9.6300000e+002  9.6500000e+002  9.6000000e+002  9.5800000e+002  9.6300000e+002  9.6200000e+002  9.6400000e+002  9.6400000e+002  9.6000000e+002  9.5900000e+002  9.6200000e+002  9.6300000e+002  9.6100000e+002  9.6300000e+002  9.6100000e+002  9.6100000e+002  9.6200000e+002  9.6500000e+002  9.6600000e+002  9.6300000e+002  9.6200000e+002  9.6000000e+002  9.6100000e+002  9.6400000e+002  9.6100000e+002  9.6100000e+002  9.6100000e+002  9.5800000e+002  9.6100000e+002  9.6000000e+002  9.6100000e+002  9.5900000e+002  9.5700000e+002  9.5600000e+002  9.5700000e+002  9.5700000e+002  9.5800000e+002  9.5900000e+002  9.5500000e+002  9.5400000e+002  9.5500000e+002  9.5700000e+002  9.5800000e+002  9.5800000e+002  9.5500000e+002  9.5500000e+002  9.5500000e+002  9.6000000e+002  9.5800000e+002  9.5700000e+002  9.5600000e+002  9.5300000e+002  9.5700000e+002  9.5800000e+002  9.5800000e+002  9.5700000e+002  9.5300000e+002  9.5200000e+002  9.5300000e+002  9.5400000e+002  9.5600000e+002  9.5500000e+002  9.5500000e+002  9.5500000e+002  9.5500000e+002  9.5800000e+002  9.5800000e+002  9.5700000e+002  9.5500000e+002  9.5400000e+002  9.5400000e+002  9.5600000e+002  9.5800000e+002  9.5500000e+002  9.5500000e+002  9.5300000e+002  9.5400000e+002  9.5600000e+002  9.5800000e+002  9.5600000e+002  9.5600000e+002  9.5600000e+002  9.5800000e+002  9.5700000e+002  9.5800000e+002  9.5700000e+002  9.5500000e+002  9.5500000e+002  9.5600000e+002  9.5800000e+002  9.6100000e+002  9.6500000e+002  9.6400000e+002  9.6500000e+002  9.6700000e+002  9.6900000e+002  9.7100000e+002  9.7100000e+002  9.7100000e+002  9.7300000e+002  9.7400000e+002  9.7600000e+002  9.7900000e+002  9.8100000e+002  9.7600000e+002  9.7500000e+002  9.7600000e+002  9.7500000e+002  9.7700000e+002  9.7500000e+002  9.7400000e+002  9.6900000e+002  9.6900000e+002  9.7100000e+002  9.7400000e+002  9.7900000e+002  9.8000000e+002  9.7800000e+002  9.7100000e+002  9.7000000e+002  9.6800000e+002  9.6700000e+002  9.6300000e+002  9.6000000e+002  9.5600000e+002  9.5800000e+002  9.5700000e+002  9.5700000e+002  9.5300000e+002  9.5000000e+002  9.5200000e+002  9.5500000e+002  9.5400000e+002  9.5300000e+002  9.5100000e+002  9.4900000e+002  9.4800000e+002  9.5000000e+002  9.5100000e+002  9.5100000e+002  9.4800000e+002  9.4700000e+002  9.4800000e+002  9.4900000e+002  9.5300000e+002  9.5000000e+002  9.4600000e+002  9.4300000e+002  9.4200000e+002  9.3700000e+002  9.3100000e+002  9.2600000e+002  9.2000000e+002  9.1300000e+002  9.1000000e+002  9.1900000e+002  9.4300000e+002  9.7400000e+002  1.0060000e+003  1.0480000e+003  1.1060000e+003  1.1620000e+003  1.2010000e+003  1.2160000e+003  1.1940000e+003  1.1280000e+003  1.0340000e+003  9.6000000e+002  9.2400000e+002  9.2300000e+002  9.3500000e+002  9.4100000e+002  9.4500000e+002  9.4600000e+002  9.4500000e+002  9.4600000e+002  9.4500000e+002  9.4300000e+002  9.4500000e+002  9.4300000e+002  9.4600000e+002  9.4500000e+002  9.4500000e+002  9.4200000e+002  9.4300000e+002  9.4400000e+002  9.4400000e+002  9.4100000e+002  9.4300000e+002  9.4000000e+002  9.4100000e+002  9.4300000e+002  9.4300000e+002  9.4000000e+002  9.4000000e+002  9.3700000e+002  9.4000000e+002  9.4200000e+002  9.4200000e+002  9.4300000e+002  9.3900000e+002  9.3800000e+002  9.4000000e+002  9.4100000e+002  9.4200000e+002  9.4200000e+002  9.3900000e+002  9.4000000e+002  9.4400000e+002  9.4500000e+002  9.4400000e+002  9.4400000e+002  9.4500000e+002  9.4100000e+002  9.4300000e+002  9.4600000e+002  9.4400000e+002  9.4400000e+002  9.4100000e+002  9.3900000e+002  9.3900000e+002  9.4100000e+002  9.4100000e+002  9.4200000e+002  9.3900000e+002  9.3900000e+002  9.4000000e+002  9.4100000e+002  9.4400000e+002  9.4400000e+002  9.4200000e+002  9.3900000e+002  9.4200000e+002  9.4300000e+002  9.4500000e+002  9.4400000e+002  9.4400000e+002  9.4300000e+002  9.4700000e+002  9.4400000e+002  9.4600000e+002  9.4600000e+002  9.4400000e+002  9.4100000e+002  9.4300000e+002  9.4300000e+002  9.4200000e+002  9.4100000e+002  9.4000000e+002  9.4000000e+002  9.3900000e+002  9.4100000e+002  9.4100000e+002  9.4200000e+002  9.3700000e+002  9.3800000e+002  9.3700000e+002  9.4000000e+002  9.4000000e+002  9.4000000e+002  9.4000000e+002  9.3900000e+002  9.3900000e+002  9.4100000e+002  9.4500000e+002  9.4500000e+002  9.4600000e+002  9.4900000e+002  9.5200000e+002  9.5600000e+002  9.5700000e+002  9.5800000e+002  9.5700000e+002  9.5700000e+002  9.5900000e+002  9.6000000e+002  9.6300000e+002  9.6300000e+002  9.6100000e+002  9.6200000e+002  9.6300000e+002  9.6400000e+002  9.6400000e+002  9.6400000e+002  9.6200000e+002  9.6200000e+002  9.6200000e+002  9.6100000e+002  9.6400000e+002  9.6300000e+002  9.6100000e+002  9.6000000e+002  9.5900000e+002  9.6200000e+002  9.6300000e+002  9.6300000e+002  9.6000000e+002  9.5900000e+002  9.6300000e+002  9.6200000e+002  9.6500000e+002  9.6200000e+002  9.5900000e+002  9.5800000e+002  9.6000000e+002  9.6000000e+002  9.6000000e+002  9.5900000e+002  9.5400000e+002  9.5400000e+002  9.5600000e+002  9.5700000e+002  9.5800000e+002  9.5700000e+002  9.5600000e+002  9.5200000e+002  9.5400000e+002  9.5400000e+002  9.5300000e+002  9.5200000e+002  9.5300000e+002  9.5100000e+002  9.5300000e+002  9.5400000e+002  9.5600000e+002  9.5300000e+002  9.5400000e+002  9.5100000e+002  9.5100000e+002  9.5400000e+002  9.5300000e+002  9.5400000e+002  9.5000000e+002  9.4800000e+002  9.5000000e+002  9.5200000e+002  9.5100000e+002  9.5200000e+002  9.5100000e+002  9.4800000e+002  9.5000000e+002  9.5100000e+002  9.5400000e+002  9.5400000e+002  9.5400000e+002  9.5000000e+002  9.5100000e+002  9.5500000e+002  9.5500000e+002  9.5600000e+002  9.5300000e+002  9.5100000e+002  9.5200000e+002  9.5300000e+002  9.5300000e+002  9.5300000e+002  9.4900000e+002  9.4700000e+002  9.5300000e+002  9.5200000e+002  9.5300000e+002  9.5200000e+002  9.5200000e+002  9.5000000e+002  9.5200000e+002  9.5500000e+002  9.5300000e+002  9.5500000e+002  9.5500000e+002  9.5500000e+002  9.5600000e+002  9.6200000e+002  9.6300000e+002  9.6300000e+002  9.6200000e+002  9.6300000e+002  9.6600000e+002  9.6700000e+002  9.6900000e+002  9.6800000e+002  9.6800000e+002  9.6900000e+002  9.7100000e+002  9.7300000e+002  9.7500000e+002  9.7200000e+002  9.7100000e+002  9.6900000e+002  9.6800000e+002  9.7100000e+002  9.7000000e+002  9.6900000e+002  9.6800000e+002  9.6900000e+002  9.6800000e+002  9.6900000e+002  9.7100000e+002  9.7300000e+002  9.7600000e+002  9.7200000e+002  9.6800000e+002  9.6200000e+002  9.6200000e+002  9.5500000e+002  9.5200000e+002  9.4800000e+002  9.4700000e+002  9.4800000e+002  9.5000000e+002  9.4900000e+002  9.4700000e+002  9.4600000e+002  9.4500000e+002  9.4700000e+002  9.4700000e+002  9.4700000e+002  9.4500000e+002  9.4300000e+002  9.4400000e+002  9.4900000e+002  9.4900000e+002  9.4600000e+002  9.4500000e+002  9.4100000e+002  9.4300000e+002  9.4400000e+002  9.4600000e+002  9.4300000e+002  9.3900000e+002  9.3200000e+002  9.2900000e+002  9.2300000e+002  9.2200000e+002  9.1900000e+002  9.1600000e+002  9.0400000e+002  8.9500000e+002  8.9800000e+002  9.0900000e+002  9.2500000e+002  9.4700000e+002  9.7000000e+002  1.0010000e+003  1.0420000e+003  1.0980000e+003  1.1510000e+003  1.1860000e+003  1.1960000e+003  1.1780000e+003  1.1190000e+003  1.0370000e+003  9.6300000e+002  9.2400000e+002  9.2000000e+002  9.2900000e+002  9.4200000e+002  9.4600000e+002  9.4600000e+002  9.4400000e+002  9.4200000e+002  9.4300000e+002  9.4700000e+002  9.4600000e+002  9.4500000e+002  9.4300000e+002  9.4200000e+002  9.4300000e+002  9.4400000e+002  9.4600000e+002  9.4500000e+002  9.4200000e+002  9.4100000e+002  9.4200000e+002  9.4500000e+002  9.4300000e+002  9.4200000e+002  9.4300000e+002  9.4300000e+002  9.4200000e+002  9.4600000e+002  9.4700000e+002  9.4600000e+002  9.4500000e+002  9.4400000e+002  9.4400000e+002  9.4400000e+002  9.4500000e+002  9.4500000e+002  9.4300000e+002  9.4300000e+002  9.4400000e+002  9.4500000e+002  9.4700000e+002  9.4900000e+002  9.4700000e+002  9.4500000e+002  9.4600000e+002  9.4700000e+002  9.4900000e+002  9.4700000e+002  9.4500000e+002  9.4500000e+002  9.4700000e+002  9.4900000e+002  9.4900000e+002  9.4700000e+002  9.4500000e+002  9.4600000e+002  9.4600000e+002  9.5100000e+002  9.4900000e+002  9.4700000e+002  9.4500000e+002  9.4800000e+002  9.4700000e+002  9.4900000e+002  9.4800000e+002  9.4600000e+002  9.4800000e+002  9.4900000e+002  9.4900000e+002  9.4900000e+002  9.4900000e+002  9.4800000e+002  9.4600000e+002  9.4600000e+002  9.5100000e+002  9.5000000e+002  9.4900000e+002  9.4700000e+002  9.4600000e+002  9.4600000e+002  9.4900000e+002  9.5100000e+002  9.4700000e+002  9.4800000e+002  9.4600000e+002  9.4900000e+002  9.4900000e+002  9.5100000e+002  9.5000000e+002  9.4700000e+002  9.4500000e+002  9.4700000e+002  9.4700000e+002  9.5000000e+002  9.5100000e+002  9.5000000e+002  9.4900000e+002  9.5400000e+002  9.5700000e+002  9.6000000e+002  9.6100000e+002  9.6000000e+002  9.5900000e+002  9.6100000e+002  9.6500000e+002  9.6700000e+002  9.6400000e+002  9.6500000e+002  9.6700000e+002  9.6700000e+002  9.6800000e+002  9.7000000e+002  9.6800000e+002  9.6600000e+002  9.6500000e+002  9.6500000e+002  9.6600000e+002  9.6800000e+002  9.6600000e+002  9.6500000e+002  9.6200000e+002  9.6500000e+002  9.6700000e+002  9.6800000e+002  9.6900000e+002  9.6500000e+002  9.6300000e+002  9.6400000e+002  9.6500000e+002  9.6500000e+002  9.6700000e+002  9.6400000e+002  9.6300000e+002  9.6400000e+002  9.6500000e+002  9.6400000e+002  9.6300000e+002  9.6100000e+002  9.6200000e+002  9.6100000e+002  9.6500000e+002  9.6400000e+002  9.6200000e+002  9.5800000e+002  9.5600000e+002  9.5800000e+002  9.6000000e+002  9.6000000e+002  9.6100000e+002  9.5900000e+002  9.5700000e+002  9.5800000e+002  9.6100000e+002  9.6000000e+002  9.6000000e+002  9.5800000e+002  9.5500000e+002  9.5600000e+002  9.5700000e+002  9.5800000e+002  9.5700000e+002  9.5500000e+002  9.5400000e+002  9.5500000e+002  9.5600000e+002  9.5700000e+002  9.5700000e+002  9.5800000e+002  9.5700000e+002  9.5600000e+002  9.5700000e+002  9.6000000e+002  9.5600000e+002  9.5600000e+002  9.5400000e+002  9.5100000e+002  9.5200000e+002  9.5500000e+002  9.5500000e+002  9.5400000e+002  9.5400000e+002  9.5400000e+002  9.5600000e+002  9.5600000e+002  9.5500000e+002  9.5500000e+002  9.4800000e+002  9.5200000e+002  9.5200000e+002  9.5500000e+002  9.5500000e+002  9.5400000e+002  9.5300000e+002  9.5500000e+002  9.5800000e+002  9.5800000e+002  9.5700000e+002  9.5700000e+002  9.5600000e+002  9.5800000e+002  9.6000000e+002  9.6600000e+002  9.6600000e+002  9.6400000e+002  9.6300000e+002  9.6700000e+002  9.6800000e+002  9.6900000e+002  9.6800000e+002  9.6900000e+002  9.7000000e+002  9.7100000e+002  9.7400000e+002  9.7800000e+002  9.7500000e+002  9.7600000e+002  9.7300000e+002  9.7300000e+002  9.7500000e+002  9.7700000e+002  9.7300000e+002  9.7100000e+002  9.7200000e+002  9.7300000e+002  9.7000000e+002  9.7100000e+002  9.6800000e+002  9.7300000e+002  9.7400000e+002  9.7500000e+002  9.7100000e+002  9.6800000e+002  9.6400000e+002  9.6100000e+002  9.5900000e+002  9.5700000e+002  9.5500000e+002  9.5800000e+002  9.5700000e+002  9.5500000e+002  9.5200000e+002  9.5400000e+002  9.5600000e+002  9.5700000e+002  9.5500000e+002  9.5200000e+002  9.5100000e+002  9.4900000e+002  9.5000000e+002  9.5100000e+002  9.5100000e+002  9.4800000e+002  9.4900000e+002  9.4900000e+002  9.5100000e+002  9.5000000e+002  9.5200000e+002  9.5000000e+002  9.4800000e+002  9.5100000e+002  9.5200000e+002  9.5400000e+002  9.5300000e+002  9.5000000e+002  9.4700000e+002  9.4500000e+002  9.3800000e+002  9.3500000e+002  9.2700000e+002  9.2100000e+002  9.1100000e+002  9.1300000e+002  9.2900000e+002  9.5300000e+002  9.8000000e+002  1.0130000e+003  1.0610000e+003  1.1190000e+003  1.1650000e+003  1.1880000e+003  1.1800000e+003  1.1310000e+003  1.0530000e+003  9.8400000e+002  9.4000000e+002  9.2400000e+002  9.2800000e+002  9.3400000e+002  9.4200000e+002  9.4400000e+002  9.4600000e+002  9.4600000e+002  9.4400000e+002  9.4300000e+002  9.3900000e+002  9.3900000e+002  9.4300000e+002  9.4500000e+002  9.4300000e+002  9.4300000e+002  9.4100000e+002  9.4300000e+002  9.4700000e+002  9.4600000e+002  9.4500000e+002  9.4500000e+002  9.4500000e+002  9.4500000e+002  9.4700000e+002  9.4600000e+002  9.4600000e+002  9.4400000e+002  9.3900000e+002  9.4200000e+002  9.4400000e+002  9.4500000e+002  9.4400000e+002  9.4300000e+002  9.3900000e+002  9.4100000e+002  9.4300000e+002  9.4300000e+002  9.4300000e+002  9.4200000e+002  9.4100000e+002  9.4300000e+002  9.4000000e+002  9.4300000e+002  9.4200000e+002  9.4200000e+002  9.4000000e+002  9.4100000e+002  9.4300000e+002  9.4500000e+002  9.4500000e+002  9.4500000e+002  9.4400000e+002  9.4500000e+002  9.4500000e+002  9.4300000e+002  9.4300000e+002  9.4000000e+002  9.3700000e+002  9.4100000e+002  9.4300000e+002  9.4500000e+002  9.4600000e+002  9.4100000e+002  9.4300000e+002  9.4300000e+002  9.4400000e+002  9.4500000e+002  9.4500000e+002  9.4300000e+002  9.4000000e+002  9.4100000e+002  9.4400000e+002  9.4500000e+002  9.4400000e+002  9.4300000e+002  9.3900000e+002  9.3900000e+002  9.3900000e+002  9.4000000e+002  9.3900000e+002  9.3400000e+002  9.3500000e+002  9.3400000e+002  9.3700000e+002  9.3500000e+002  9.3000000e+002  9.3300000e+002  9.3200000e+002  9.3600000e+002  9.3700000e+002  9.3900000e+002  9.3800000e+002  9.3500000e+002  9.3400000e+002  9.3500000e+002  9.3800000e+002  9.4000000e+002  9.4200000e+002  9.3900000e+002  9.4000000e+002  9.4300000e+002  9.4800000e+002  9.5000000e+002  9.5100000e+002  9.5100000e+002  9.5100000e+002  9.5500000e+002  9.5800000e+002  9.6100000e+002  9.6300000e+002  9.6300000e+002  9.6000000e+002  9.6200000e+002  9.6200000e+002  9.6300000e+002  9.6200000e+002  9.6100000e+002  9.6000000e+002  9.6100000e+002  9.6300000e+002  9.6300000e+002  9.6500000e+002  9.6200000e+002  9.6000000e+002  9.6200000e+002  9.6100000e+002  9.6500000e+002  9.6400000e+002  9.6300000e+002  9.6400000e+002  9.6700000e+002  9.6800000e+002  9.6600000e+002  9.6500000e+002  9.6300000e+002  9.5900000e+002  9.6300000e+002  9.6400000e+002  9.6400000e+002  9.6100000e+002  9.5900000e+002  9.5700000e+002  9.5900000e+002  9.6100000e+002  9.6000000e+002  9.5700000e+002  9.5800000e+002  9.5600000e+002  9.5900000e+002  9.5900000e+002  9.6000000e+002  9.6100000e+002  9.5700000e+002  9.5700000e+002  9.5500000e+002  9.5700000e+002  9.5900000e+002  9.5800000e+002  9.6100000e+002  9.5700000e+002  9.5800000e+002  9.5800000e+002  9.5800000e+002  9.5800000e+002  9.5700000e+002  9.5600000e+002  9.5800000e+002  9.6000000e+002  9.6100000e+002  9.5900000e+002  9.5700000e+002  9.5300000e+002  9.5500000e+002  9.5600000e+002  9.5700000e+002  9.6000000e+002  9.5900000e+002  9.5400000e+002  9.5800000e+002  9.6100000e+002  9.6100000e+002  9.5800000e+002  9.5800000e+002  9.5700000e+002  9.5700000e+002  9.5800000e+002  9.5800000e+002  9.5800000e+002  9.5600000e+002  9.5600000e+002  9.5600000e+002  9.5900000e+002  9.5900000e+002  9.5900000e+002  9.5500000e+002  9.5400000e+002  9.5600000e+002  9.5800000e+002  9.6000000e+002  9.6200000e+002  9.6300000e+002  9.6300000e+002  9.6900000e+002  9.7000000e+002  9.7300000e+002  9.7200000e+002  9.7100000e+002  9.7200000e+002  9.7400000e+002  9.7700000e+002  9.7700000e+002  9.8000000e+002  9.7700000e+002  9.7700000e+002  9.8000000e+002  9.7800000e+002  9.7900000e+002  9.7700000e+002  9.7500000e+002  9.7300000e+002  9.7600000e+002  9.7800000e+002  9.7800000e+002  9.7400000e+002  9.7300000e+002  9.7400000e+002  9.7800000e+002  9.8300000e+002  9.8500000e+002  9.8200000e+002  9.7800000e+002  9.7000000e+002  9.7000000e+002  9.6700000e+002  9.6700000e+002  9.6200000e+002  9.5800000e+002  9.5600000e+002  9.5600000e+002  9.5500000e+002  9.5400000e+002  9.5400000e+002  9.5600000e+002  9.5300000e+002  9.5500000e+002  9.5600000e+002  9.5600000e+002  9.5500000e+002  9.5300000e+002  9.5000000e+002  9.5300000e+002  9.5000000e+002  9.5500000e+002  9.5600000e+002  9.5200000e+002  9.4800000e+002  9.5200000e+002  9.5500000e+002  9.5400000e+002  9.5400000e+002  9.5300000e+002  9.4800000e+002  9.4600000e+002  9.4500000e+002  9.3900000e+002  9.3300000e+002  9.2900000e+002  9.2200000e+002  9.1500000e+002  9.1600000e+002  9.2500000e+002  9.4300000e+002  9.6500000e+002  9.9200000e+002  1.0320000e+003  1.0870000e+003  1.1430000e+003  1.1840000e+003  1.2010000e+003  1.1830000e+003  1.1280000e+003  1.0500000e+003  9.8100000e+002  9.3900000e+002  9.2400000e+002  9.2600000e+002  9.3400000e+002  9.4400000e+002  9.4600000e+002  9.4500000e+002  9.4500000e+002  9.4400000e+002  9.4600000e+002  9.4800000e+002  9.4700000e+002  9.4700000e+002  9.4400000e+002  9.4200000e+002  9.4200000e+002  9.4600000e+002  9.4600000e+002  9.4300000e+002  9.4300000e+002  9.4100000e+002  9.4200000e+002  9.4500000e+002  9.4500000e+002  9.4400000e+002  9.4100000e+002  9.4100000e+002  9.4100000e+002  9.4400000e+002  9.4600000e+002  9.4600000e+002  9.4200000e+002  9.4100000e+002  9.4300000e+002  9.4500000e+002  9.4500000e+002  9.4500000e+002  9.4300000e+002  9.4200000e+002  9.4200000e+002  9.4400000e+002  9.4600000e+002  9.4500000e+002  9.4200000e+002  9.3900000e+002  9.4100000e+002  9.4300000e+002  9.4200000e+002  9.4300000e+002  9.4100000e+002  9.3900000e+002  9.3900000e+002  9.4200000e+002  9.4500000e+002  9.4600000e+002  9.4400000e+002  9.4200000e+002  9.4200000e+002  9.4400000e+002  9.4600000e+002  9.4200000e+002  9.4000000e+002  9.4000000e+002  9.4100000e+002  9.4100000e+002  9.4300000e+002  9.4000000e+002  9.4100000e+002  9.3900000e+002  9.4200000e+002  9.4400000e+002  9.4300000e+002  9.4400000e+002  9.4400000e+002  9.4200000e+002  9.4400000e+002  9.4500000e+002  9.4500000e+002  9.4300000e+002  9.4200000e+002  9.3900000e+002  9.3900000e+002  9.4200000e+002  9.4200000e+002  9.4000000e+002  9.3800000e+002  9.3500000e+002  9.3600000e+002  9.3700000e+002  9.3800000e+002  9.3800000e+002  9.3400000e+002  9.3500000e+002  9.3500000e+002  9.3700000e+002  9.3700000e+002  9.3500000e+002  9.3600000e+002  9.3400000e+002  9.3800000e+002  9.3800000e+002  9.4100000e+002  9.4400000e+002  9.4400000e+002  9.4700000e+002  9.5100000e+002  9.5700000e+002  9.5800000e+002  9.5900000e+002  9.5800000e+002  9.5800000e+002  9.6200000e+002  9.6500000e+002  9.6700000e+002  9.6600000e+002  9.6600000e+002  9.6200000e+002  9.6500000e+002  9.6700000e+002  9.6800000e+002  9.6400000e+002  9.6600000e+002  9.6500000e+002  9.6600000e+002  9.6800000e+002  9.6900000e+002  9.6900000e+002  9.6600000e+002  9.6600000e+002  9.6700000e+002  9.7000000e+002  9.7000000e+002  9.7000000e+002  9.6900000e+002  9.6600000e+002  9.6700000e+002  9.6900000e+002  9.6900000e+002  9.6600000e+002  9.6500000e+002  9.6300000e+002  9.6500000e+002  9.6500000e+002  9.6700000e+002  9.6600000e+002  9.6400000e+002  9.6300000e+002  9.6200000e+002  9.6500000e+002  9.6400000e+002  9.6300000e+002  9.6200000e+002  9.5900000e+002  9.5900000e+002  9.6100000e+002  9.6200000e+002  9.6100000e+002  9.6100000e+002  9.5900000e+002  9.6000000e+002  9.6200000e+002  9.6000000e+002  9.6100000e+002  9.5800000e+002  9.5800000e+002  9.6000000e+002  9.6200000e+002  9.6200000e+002  9.6200000e+002  9.5800000e+002  9.5700000e+002  9.5800000e+002  9.6000000e+002  9.5900000e+002  9.5900000e+002  9.5800000e+002  9.5700000e+002  9.5800000e+002  9.5900000e+002  9.5900000e+002  9.6000000e+002  9.5900000e+002  9.5800000e+002  9.5900000e+002  9.6100000e+002  9.6300000e+002  9.5900000e+002  9.6100000e+002  9.5700000e+002  9.5800000e+002  9.6200000e+002  9.6000000e+002  9.5800000e+002  9.5800000e+002  9.5700000e+002  9.5800000e+002  9.5800000e+002  9.6000000e+002  9.6000000e+002  9.5800000e+002  9.5800000e+002  9.5900000e+002  9.6100000e+002  9.6100000e+002  9.6100000e+002  9.5800000e+002  9.5800000e+002  9.6000000e+002  9.6100000e+002  9.6300000e+002  9.6300000e+002  9.6500000e+002  9.6100000e+002  9.6400000e+002  9.6900000e+002  9.7300000e+002  9.7300000e+002  9.7200000e+002  9.7100000e+002  9.7300000e+002  9.7700000e+002  9.7800000e+002  9.7900000e+002  9.8000000e+002  9.8000000e+002  9.8100000e+002  9.8400000e+002  9.8300000e+002  9.8300000e+002  9.7900000e+002  9.7700000e+002  9.7600000e+002  9.7800000e+002  9.8100000e+002  9.7600000e+002  9.7600000e+002  9.7400000e+002  9.7700000e+002  9.8200000e+002  9.8400000e+002  9.8000000e+002  9.7300000e+002  9.6900000e+002  9.6700000e+002  9.6400000e+002  9.6300000e+002  9.6000000e+002  9.5800000e+002  9.5900000e+002  9.6000000e+002  9.5800000e+002  9.5800000e+002  9.5700000e+002  9.5600000e+002  9.5500000e+002  9.5600000e+002  9.5700000e+002  9.6000000e+002  9.5900000e+002  9.5700000e+002  9.5500000e+002  9.5500000e+002  9.5500000e+002  9.5700000e+002  9.5600000e+002  9.5500000e+002  9.5300000e+002  9.5600000e+002  9.5600000e+002  9.5600000e+002  9.5600000e+002  9.5500000e+002  9.5300000e+002  9.5100000e+002  9.5000000e+002  9.4300000e+002  9.3500000e+002  9.2800000e+002  9.2500000e+002  9.2000000e+002  9.1700000e+002  9.2300000e+002  9.4100000e+002  9.6800000e+002  9.9700000e+002  1.0370000e+003  1.0840000e+003  1.1400000e+003  1.1860000e+003  1.2130000e+003  1.2080000e+003  1.1790000e+003  1.1130000e+003  1.0280000e+003  9.6500000e+002  9.3500000e+002  9.3000000e+002  9.3900000e+002  9.4800000e+002  9.5200000e+002  9.5200000e+002  9.5000000e+002  9.4800000e+002  9.4800000e+002  9.4900000e+002  9.5000000e+002  9.5100000e+002  9.5000000e+002  9.4700000e+002  9.4700000e+002  9.4900000e+002  9.5000000e+002  9.5000000e+002  9.4700000e+002  9.4500000e+002  9.4700000e+002  9.4700000e+002  9.4600000e+002  9.4700000e+002  9.4500000e+002  9.4200000e+002  9.4400000e+002  9.4500000e+002  9.4800000e+002  9.4500000e+002  9.4500000e+002  9.4400000e+002  9.4400000e+002  9.4500000e+002  9.4600000e+002  9.4600000e+002  9.4500000e+002  9.4300000e+002  9.4600000e+002  9.4700000e+002  9.4900000e+002  9.4900000e+002  9.4800000e+002  9.4600000e+002  9.4700000e+002  9.5000000e+002  9.5000000e+002  9.5000000e+002  9.4900000e+002  9.4700000e+002  9.5000000e+002  9.4600000e+002  9.4900000e+002  9.5000000e+002  9.4800000e+002  9.4600000e+002  9.4600000e+002  9.4700000e+002  9.4900000e+002  9.4900000e+002  9.4700000e+002  9.4500000e+002  9.4600000e+002  9.4700000e+002  9.4900000e+002  9.4800000e+002  9.4700000e+002  9.4600000e+002  9.4800000e+002  9.4800000e+002  9.5000000e+002  9.5000000e+002  9.5100000e+002  9.4600000e+002  9.5100000e+002  9.5100000e+002  9.5200000e+002  9.4900000e+002  9.4800000e+002  9.4400000e+002  9.4600000e+002  9.4900000e+002  9.4900000e+002  9.5000000e+002  9.4700000e+002  9.4600000e+002  9.4600000e+002  9.4600000e+002  9.4600000e+002  9.4900000e+002  9.4700000e+002  9.4500000e+002  9.4800000e+002  9.5000000e+002  9.4900000e+002  9.4900000e+002  9.4600000e+002  9.4300000e+002  9.4900000e+002  9.5000000e+002  9.5200000e+002  9.4900000e+002  9.4700000e+002  9.4800000e+002  9.5000000e+002  9.5200000e+002  9.5500000e+002  9.5500000e+002  9.5800000e+002  9.5800000e+002  9.6100000e+002  9.6200000e+002  9.6500000e+002  9.6700000e+002  9.6700000e+002  9.6500000e+002  9.6800000e+002  9.7000000e+002  9.6800000e+002  9.6800000e+002  9.6800000e+002  9.6600000e+002  9.6600000e+002  9.6800000e+002  9.6900000e+002  9.6800000e+002  9.6700000e+002  9.6600000e+002  9.6600000e+002  9.6800000e+002  9.6800000e+002  9.6700000e+002  9.6600000e+002  9.6400000e+002  9.6500000e+002  9.6700000e+002  9.6800000e+002  9.6700000e+002  9.6700000e+002  9.6500000e+002  9.6700000e+002  9.6800000e+002  9.6900000e+002  9.6800000e+002  9.6600000e+002  9.6200000e+002  9.6300000e+002  9.6700000e+002  9.7000000e+002  9.7000000e+002  9.6900000e+002  9.6700000e+002  9.6700000e+002  9.7000000e+002  9.7100000e+002  9.7100000e+002  9.7100000e+002  9.6800000e+002  9.7100000e+002  9.7500000e+002  9.7700000e+002  9.7700000e+002  9.7400000e+002  9.7400000e+002  9.7500000e+002  9.8100000e+002  9.8000000e+002  9.7500000e+002  9.7300000e+002  9.7800000e+002  9.8300000e+002  9.8200000e+002  9.8000000e+002  9.7800000e+002  9.7600000e+002  9.7600000e+002  9.7500000e+002  9.7400000e+002  9.7000000e+002  9.6700000e+002  9.6100000e+002  9.6000000e+002  9.6000000e+002  9.6200000e+002  9.5800000e+002  9.5600000e+002  9.5500000e+002  9.5200000e+002  9.5100000e+002  9.5200000e+002  9.5400000e+002  9.5300000e+002  9.4900000e+002  9.4700000e+002  9.4900000e+002  9.5000000e+002  9.5100000e+002  9.5100000e+002  9.5000000e+002  9.4800000e+002  9.5200000e+002  9.5400000e+002  9.5300000e+002  9.5300000e+002  9.5400000e+002  9.5100000e+002  9.5400000e+002  9.5400000e+002  9.5600000e+002  9.5300000e+002  9.5400000e+002  9.4900000e+002  9.5100000e+002  9.4900000e+002  9.4400000e+002  9.3800000e+002  9.2900000e+002  9.2000000e+002  9.2000000e+002  9.1400000e+002  9.1000000e+002  9.1600000e+002  9.3500000e+002  9.6300000e+002  9.9600000e+002  1.0290000e+003  1.0760000e+003  1.1260000e+003  1.1710000e+003  1.1930000e+003  1.1990000e+003  1.1710000e+003  1.1040000e+003  1.0190000e+003  9.5700000e+002  9.2800000e+002  9.3000000e+002  9.4100000e+002  9.4900000e+002  9.5100000e+002  9.4700000e+002  9.4400000e+002  9.4800000e+002  9.4600000e+002  9.4900000e+002  9.4700000e+002  9.4500000e+002  9.4300000e+002  9.4600000e+002  9.4800000e+002  9.4700000e+002  9.4700000e+002  9.4500000e+002  9.4400000e+002  9.4300000e+002  9.4400000e+002  9.4600000e+002  9.4600000e+002  9.4500000e+002  9.4400000e+002  9.4600000e+002  9.4700000e+002  9.4600000e+002  9.4700000e+002  9.4200000e+002  9.4000000e+002  9.4300000e+002  9.4200000e+002  9.4600000e+002  9.4600000e+002  9.4600000e+002  9.4400000e+002  9.4400000e+002  9.4600000e+002  9.4900000e+002  9.4800000e+002  9.4500000e+002  9.4400000e+002  9.4600000e+002  9.4400000e+002  9.4600000e+002  9.4500000e+002  9.4200000e+002  9.4100000e+002  9.4300000e+002  9.4700000e+002  9.4700000e+002  9.4800000e+002  9.4400000e+002  9.4400000e+002  9.4500000e+002  9.4600000e+002  9.4800000e+002  9.4900000e+002  9.4500000e+002  9.4500000e+002  9.4700000e+002  9.4800000e+002  9.4900000e+002  9.4700000e+002  9.4600000e+002  9.4400000e+002  9.4400000e+002  9.4700000e+002  9.4800000e+002  9.4500000e+002  9.4600000e+002  9.4400000e+002  9.4500000e+002  9.4700000e+002  9.4800000e+002  9.4700000e+002  9.4500000e+002  9.4300000e+002  9.4400000e+002  9.4600000e+002  9.4800000e+002  9.4800000e+002  9.4700000e+002  9.4300000e+002  9.4500000e+002  9.4400000e+002  9.4600000e+002  9.4400000e+002  9.4300000e+002  9.3900000e+002  9.4000000e+002  9.4300000e+002  9.4400000e+002  9.4300000e+002  9.4300000e+002  9.4100000e+002  9.4400000e+002  9.4600000e+002  9.4800000e+002  9.4700000e+002  9.4500000e+002  9.4300000e+002  9.4600000e+002  9.5000000e+002  9.5000000e+002  9.5000000e+002  9.4700000e+002  9.5000000e+002  9.5300000e+002  9.5500000e+002  9.5600000e+002  9.5700000e+002  9.5600000e+002  9.5300000e+002  9.5700000e+002  9.5900000e+002  9.6200000e+002  9.6300000e+002  9.6300000e+002  9.6000000e+002  9.6100000e+002  9.6200000e+002  9.6300000e+002  9.6300000e+002  9.5800000e+002  9.5900000e+002  9.5500000e+002  9.5900000e+002  9.6100000e+002  9.6100000e+002  9.6300000e+002  9.6200000e+002  9.6200000e+002  9.6400000e+002  9.6300000e+002  9.6300000e+002  9.6100000e+002  9.6000000e+002  9.5900000e+002  9.6100000e+002  9.6300000e+002  9.6100000e+002  9.5900000e+002  9.5900000e+002  9.5800000e+002  9.6100000e+002  9.6100000e+002  9.6200000e+002  9.5800000e+002  9.5600000e+002  9.5700000e+002  9.5800000e+002  9.5500000e+002  9.5300000e+002  9.5100000e+002  9.5000000e+002  9.5500000e+002  9.5600000e+002  9.5600000e+002  9.5500000e+002  9.5200000e+002  9.5100000e+002  9.5200000e+002  9.5200000e+002  9.5500000e+002  9.5300000e+002  9.5100000e+002  9.5400000e+002  9.5200000e+002  9.5400000e+002  9.5600000e+002  9.5500000e+002  9.5300000e+002  9.5000000e+002  9.5400000e+002  9.5400000e+002  9.5400000e+002  9.5500000e+002  9.5400000e+002  9.5300000e+002  9.5200000e+002  9.5500000e+002  9.5300000e+002  9.5400000e+002  9.5200000e+002  9.5000000e+002  9.5300000e+002  9.5300000e+002  9.5400000e+002  9.5300000e+002  9.5200000e+002  9.4600000e+002  9.4700000e+002  9.5200000e+002  9.5200000e+002  9.5000000e+002  9.5000000e+002  9.4600000e+002  9.4900000e+002  9.5000000e+002  9.5400000e+002  9.5600000e+002  9.5500000e+002  9.5200000e+002  9.5200000e+002  9.5400000e+002  9.5400000e+002  9.5700000e+002  9.5200000e+002  9.5100000e+002  9.5100000e+002  9.5200000e+002  9.5200000e+002  9.5100000e+002  9.4900000e+002  9.4700000e+002  9.4700000e+002  9.5100000e+002  9.5000000e+002  9.4900000e+002  9.5000000e+002  9.4900000e+002  9.5100000e+002  9.5300000e+002  9.5300000e+002  9.5200000e+002  9.5100000e+002  9.5000000e+002  9.5200000e+002  9.5400000e+002  9.5600000e+002  9.5500000e+002  9.5600000e+002  9.5400000e+002  9.5500000e+002  9.5400000e+002  9.5200000e+002  9.5400000e+002  9.5200000e+002  9.5000000e+002  9.5200000e+002  9.5200000e+002  9.5300000e+002  9.5200000e+002  9.4900000e+002  9.4900000e+002  9.5000000e+002  9.5400000e+002  9.5300000e+002  9.5200000e+002  9.5100000e+002  9.4900000e+002  9.5000000e+002  9.5100000e+002  9.5200000e+002  9.5300000e+002  9.5200000e+002  9.5200000e+002  9.5400000e+002  9.5600000e+002  9.5500000e+002  9.5500000e+002  9.5300000e+002  9.5200000e+002  9.5200000e+002  9.5100000e+002  9.5500000e+002  9.5300000e+002  9.5400000e+002  9.5200000e+002  9.5300000e+002  9.5200000e+002  9.5500000e+002  9.5700000e+002  9.5800000e+002  9.5800000e+002  9.6200000e+002  9.6300000e+002  9.6400000e+002  9.6300000e+002  9.6500000e+002  9.6300000e+002  9.6700000e+002  9.6900000e+002  9.7100000e+002  9.7300000e+002  9.7300000e+002  9.7200000e+002  9.7100000e+002  9.7300000e+002  9.7300000e+002  9.7200000e+002  9.6800000e+002  9.6600000e+002  9.6800000e+002  9.7000000e+002  9.7300000e+002  9.6900000e+002  9.6600000e+002  9.6000000e+002  9.6400000e+002  9.6500000e+002  9.7000000e+002  9.7100000e+002  9.7000000e+002  9.6700000e+002  9.6400000e+002  9.6200000e+002  9.6100000e+002  9.6000000e+002  9.5400000e+002  9.5000000e+002  9.5100000e+002  9.5100000e+002  9.5100000e+002  9.5000000e+002  9.5000000e+002  9.5000000e+002  9.4800000e+002  9.5200000e+002  9.4900000e+002  9.4900000e+002  9.4400000e+002  9.4000000e+002  9.4300000e+002  9.4400000e+002  9.4700000e+002  9.4800000e+002  9.4400000e+002  9.4100000e+002  9.4300000e+002  9.4500000e+002  9.4500000e+002  9.4500000e+002  9.4200000e+002  9.3800000e+002  9.3600000e+002  9.3300000e+002  9.2600000e+002  9.2700000e+002  9.2000000e+002  9.1000000e+002  9.0900000e+002  9.1900000e+002  9.4000000e+002  9.6300000e+002  9.8600000e+002  1.0200000e+003  1.0680000e+003  1.1210000e+003  1.1670000e+003  1.1930000e+003  1.2010000e+003  1.1820000e+003  1.1360000e+003  1.0690000e+003  1.0100000e+003  9.6700000e+002  9.3900000e+002  9.2400000e+002  9.1400000e+002  9.1700000e+002  9.2400000e+002  9.3100000e+002  9.3400000e+002  9.3400000e+002  9.3700000e+002  9.4000000e+002  9.4200000e+002  9.4200000e+002  9.4100000e+002  9.4000000e+002  9.3900000e+002  9.4000000e+002  9.3800000e+002  9.3800000e+002  9.3600000e+002  9.3400000e+002  9.3400000e+002  9.3800000e+002  9.3800000e+002  9.3800000e+002  9.3500000e+002  9.3500000e+002  9.3600000e+002  9.3900000e+002  9.3800000e+002  9.3800000e+002  9.3900000e+002  9.3500000e+002  9.3500000e+002  9.3800000e+002  9.3700000e+002  9.3700000e+002  9.3500000e+002  9.3500000e+002  9.3700000e+002  9.3800000e+002  9.3900000e+002  9.3800000e+002  9.3800000e+002  9.3600000e+002  9.4000000e+002  9.3800000e+002  9.3900000e+002  9.3800000e+002  9.3600000e+002  9.3600000e+002  9.3800000e+002  9.3800000e+002  9.4100000e+002  9.3900000e+002  9.3800000e+002  9.3300000e+002  9.3500000e+002  9.3500000e+002  9.3800000e+002  9.3800000e+002  9.3600000e+002  9.3600000e+002  9.3700000e+002  9.3800000e+002  9.4100000e+002  9.4100000e+002  9.3900000e+002  9.3900000e+002  9.4000000e+002  9.4300000e+002  9.4300000e+002  9.4100000e+002  9.4100000e+002  9.3900000e+002  9.3800000e+002  9.4300000e+002  9.4300000e+002  9.4300000e+002  9.4300000e+002  9.3800000e+002  9.4100000e+002  9.4200000e+002  9.4100000e+002  9.3800000e+002  9.3500000e+002  9.3100000e+002  9.3200000e+002  9.3400000e+002  9.3300000e+002  9.3200000e+002  9.3100000e+002  9.2700000e+002  9.2500000e+002  9.2900000e+002  9.2600000e+002  9.2400000e+002  9.2500000e+002  9.2100000e+002  9.2400000e+002  9.2700000e+002  9.2600000e+002  9.2700000e+002  9.2400000e+002  9.2400000e+002  9.2600000e+002  9.2800000e+002  9.3200000e+002  9.3200000e+002  9.3000000e+002  9.3100000e+002  9.3600000e+002  9.3800000e+002  9.3900000e+002  9.4200000e+002  9.4200000e+002  9.4400000e+002  9.4600000e+002  9.4800000e+002  9.5300000e+002  9.5400000e+002  9.5300000e+002  9.5400000e+002  9.5600000e+002  9.5800000e+002  9.5900000e+002  9.6300000e+002  9.6000000e+002  9.6100000e+002  9.6300000e+002  9.6400000e+002  9.6300000e+002  9.6300000e+002  9.6200000e+002  9.5800000e+002  9.6200000e+002  9.6100000e+002  9.6100000e+002  9.6000000e+002  9.5900000e+002  9.5900000e+002  9.5900000e+002  9.6200000e+002  9.6200000e+002  9.6100000e+002  9.5900000e+002  9.5800000e+002  9.5900000e+002  9.5900000e+002  9.6100000e+002  9.6000000e+002  9.5800000e+002  9.5700000e+002  9.5800000e+002  9.6100000e+002  9.6000000e+002  9.6000000e+002  9.5700000e+002  9.5700000e+002  9.5900000e+002  9.5900000e+002  9.6000000e+002  9.6000000e+002  9.5900000e+002  9.5400000e+002  9.5500000e+002  9.5500000e+002  9.5700000e+002  9.5500000e+002  9.5300000e+002  9.5300000e+002  9.5300000e+002  9.5500000e+002  9.5700000e+002  9.5700000e+002  9.5500000e+002  9.5300000e+002  9.5600000e+002  9.5700000e+002  9.5800000e+002  9.5700000e+002  9.5500000e+002  9.5400000e+002  9.5400000e+002  9.5600000e+002  9.5700000e+002  9.5800000e+002  9.5200000e+002  9.5300000e+002  9.5500000e+002  9.5700000e+002  9.5500000e+002  9.5400000e+002  9.5200000e+002  9.4800000e+002  9.5000000e+002  9.5500000e+002  9.5500000e+002  9.5400000e+002  9.5300000e+002  9.5100000e+002  9.5200000e+002  9.5500000e+002  9.5500000e+002  9.5400000e+002  9.5200000e+002  9.5200000e+002  9.5400000e+002  9.5300000e+002  9.5600000e+002  9.5500000e+002  9.5300000e+002  9.5300000e+002  9.5300000e+002  9.5600000e+002  9.5600000e+002  9.5500000e+002  9.5100000e+002  9.5000000e+002  9.5400000e+002  9.5800000e+002  9.6000000e+002  9.6100000e+002  9.6500000e+002  9.6300000e+002  9.6500000e+002  9.6400000e+002  9.6700000e+002  9.6900000e+002  9.7200000e+002  9.6900000e+002  9.7100000e+002  9.7200000e+002  9.7400000e+002  9.7500000e+002  9.7300000e+002  9.7100000e+002  9.7200000e+002  9.7200000e+002  9.7400000e+002  9.7200000e+002  9.6800000e+002  9.6800000e+002  9.6900000e+002  9.6700000e+002  9.6800000e+002  9.7300000e+002  9.7500000e+002  9.7500000e+002  9.7200000e+002  9.6700000e+002  9.6600000e+002  9.6400000e+002  9.6000000e+002  9.5700000e+002  9.5300000e+002  9.5400000e+002  9.5300000e+002  9.5300000e+002  9.4900000e+002  9.4700000e+002  9.4800000e+002  9.5200000e+002  9.5400000e+002  9.5200000e+002  9.5100000e+002  9.5000000e+002  9.5000000e+002  9.5100000e+002  9.5200000e+002  9.5100000e+002  9.5000000e+002  9.4700000e+002  9.4700000e+002  9.5100000e+002  9.5200000e+002  9.4800000e+002  9.4700000e+002  9.4500000e+002  9.4500000e+002  9.4700000e+002  9.4800000e+002  9.4500000e+002  9.3900000e+002  9.3100000e+002  9.2400000e+002  9.2100000e+002  9.1800000e+002  9.1200000e+002  9.0700000e+002  9.1800000e+002  9.4200000e+002  9.7300000e+002  1.0030000e+003  1.0450000e+003  1.0950000e+003  1.1440000e+003  1.1860000e+003  1.2020000e+003  1.1900000e+003  1.1400000e+003  1.0610000e+003  9.8300000e+002  9.3400000e+002  9.1900000e+002  9.2500000e+002  9.3100000e+002  9.3700000e+002  9.4100000e+002  9.4100000e+002  9.4100000e+002  9.4400000e+002  9.4500000e+002  9.4300000e+002  9.3900000e+002  9.3700000e+002  9.4100000e+002  9.4100000e+002  9.4100000e+002  9.4100000e+002  9.3800000e+002  9.4000000e+002  9.4200000e+002  9.4300000e+002  9.4000000e+002  9.4200000e+002  9.4000000e+002  9.4400000e+002  9.4500000e+002  9.4700000e+002  9.4400000e+002  9.4400000e+002  9.4400000e+002  9.4400000e+002  9.4500000e+002  9.4400000e+002  9.4400000e+002  9.4400000e+002  9.4200000e+002  9.4500000e+002  9.4200000e+002  9.4400000e+002  9.4500000e+002  9.4300000e+002  9.4200000e+002  9.4100000e+002  9.4300000e+002  9.4400000e+002  9.4500000e+002  9.4300000e+002  9.4100000e+002  9.4300000e+002  9.4100000e+002  9.4200000e+002  9.4300000e+002  9.4300000e+002  9.4200000e+002  9.4300000e+002  9.4400000e+002  9.4500000e+002  9.4300000e+002  9.4300000e+002  9.4400000e+002  9.4500000e+002  9.4600000e+002  9.4500000e+002  9.4600000e+002  9.4500000e+002  9.4000000e+002  9.4100000e+002  9.4300000e+002  9.4400000e+002  9.4400000e+002  9.4100000e+002  9.4000000e+002  9.4200000e+002  9.4500000e+002  9.4400000e+002  9.4300000e+002  9.4100000e+002  9.3700000e+002  9.4100000e+002  9.4100000e+002  9.4400000e+002  9.4300000e+002  9.4000000e+002  9.3800000e+002  9.3900000e+002  9.4200000e+002  9.4200000e+002  9.4300000e+002  9.4100000e+002  9.3900000e+002  9.3900000e+002  9.4000000e+002  9.4200000e+002  9.4200000e+002  9.4000000e+002  9.3800000e+002  9.3900000e+002  9.4000000e+002  9.4300000e+002  9.4100000e+002  9.4200000e+002  9.4200000e+002  9.4700000e+002  9.5000000e+002  9.5200000e+002  9.5400000e+002  9.5400000e+002  9.5400000e+002  9.5700000e+002  9.6000000e+002  9.6300000e+002  9.6100000e+002  9.6100000e+002  9.6000000e+002  9.6300000e+002  9.6300000e+002  9.6500000e+002  9.6600000e+002  9.6500000e+002  9.6500000e+002  9.6700000e+002  9.6700000e+002  9.7000000e+002  9.6800000e+002  9.6800000e+002  9.6500000e+002  9.6800000e+002  9.6700000e+002  9.6900000e+002  9.6700000e+002  9.6500000e+002  9.6300000e+002  9.6500000e+002  9.6700000e+002  9.6700000e+002  9.6600000e+002  9.6400000e+002  9.6200000e+002  9.6500000e+002  9.6400000e+002  9.6600000e+002  9.6700000e+002  9.6300000e+002  9.6200000e+002  9.6400000e+002  9.6500000e+002  9.6300000e+002  9.6400000e+002  9.6300000e+002  9.6000000e+002  9.6000000e+002  9.6200000e+002  9.6400000e+002  9.6200000e+002  9.6000000e+002  9.5600000e+002  9.5800000e+002  9.6200000e+002  9.6100000e+002  9.5900000e+002  9.5900000e+002  9.5500000e+002  9.5800000e+002  9.6000000e+002  9.6000000e+002  9.5700000e+002  9.5700000e+002  9.5300000e+002  9.5600000e+002  9.6000000e+002  9.6100000e+002  9.5800000e+002  9.5600000e+002  9.5600000e+002  9.5400000e+002  9.5800000e+002  9.5800000e+002  9.5600000e+002  9.5400000e+002  9.5300000e+002  9.5500000e+002  9.5700000e+002  9.5700000e+002  9.5600000e+002  9.5600000e+002  9.5500000e+002  9.5700000e+002  9.5700000e+002  9.5900000e+002  9.5900000e+002  9.5700000e+002  9.5600000e+002  9.5600000e+002  9.6000000e+002  9.6100000e+002  9.6000000e+002  9.5700000e+002  9.5700000e+002  9.6000000e+002  9.5900000e+002  9.6100000e+002  9.6000000e+002  9.6000000e+002  9.5500000e+002  9.5700000e+002  9.6000000e+002  9.6200000e+002  9.6000000e+002  9.6000000e+002  9.5600000e+002  9.5800000e+002  9.6000000e+002  9.6200000e+002  9.6200000e+002  9.6200000e+002  9.6500000e+002  9.6800000e+002  9.7300000e+002  9.7400000e+002  9.7400000e+002  9.7300000e+002  9.7200000e+002  9.7600000e+002  9.8000000e+002  9.7800000e+002  9.7800000e+002  9.8100000e+002  9.8000000e+002  9.7900000e+002  9.7800000e+002  9.7800000e+002  9.7700000e+002  9.7500000e+002  9.7300000e+002  9.7600000e+002  9.7700000e+002  9.7500000e+002  9.7700000e+002  9.7800000e+002  9.8000000e+002  9.8500000e+002  9.8000000e+002  9.7500000e+002  9.7200000e+002  9.7000000e+002  9.6600000e+002  9.6400000e+002  9.6300000e+002  9.6300000e+002  9.6000000e+002  9.5800000e+002  9.5400000e+002  9.5400000e+002  9.5700000e+002  9.5700000e+002  9.5700000e+002  9.5600000e+002  9.5400000e+002  9.5400000e+002  9.5500000e+002  9.5700000e+002  9.5500000e+002  9.5300000e+002  9.5000000e+002  9.5400000e+002  9.5500000e+002  9.5700000e+002  9.5700000e+002  9.5700000e+002  9.5300000e+002  9.5300000e+002  9.5500000e+002  9.5300000e+002  9.4500000e+002  9.3400000e+002  9.2800000e+002  9.2300000e+002  9.1900000e+002  9.1500000e+002  9.2400000e+002  9.4500000e+002  9.7300000e+002  1.0100000e+003  1.0530000e+003  1.1090000e+003  1.1610000e+003  1.1990000e+003  1.2090000e+003  1.1830000e+003  1.1180000e+003  1.0280000e+003  9.5900000e+002  9.3000000e+002  9.2700000e+002  9.4200000e+002  9.5100000e+002  9.5300000e+002  9.5100000e+002  9.4800000e+002  9.4700000e+002  9.4800000e+002  9.5000000e+002  9.5000000e+002  9.4900000e+002  9.4700000e+002  9.4500000e+002  9.4700000e+002  9.4800000e+002  9.4700000e+002  9.4900000e+002  9.4600000e+002  9.4300000e+002  9.4300000e+002  9.4600000e+002  9.4700000e+002  9.4700000e+002  9.4600000e+002  9.4200000e+002  9.4400000e+002  9.4600000e+002  9.4700000e+002  9.4700000e+002  9.4500000e+002  9.4600000e+002  9.4500000e+002  9.4800000e+002  9.4900000e+002  9.4800000e+002  9.4700000e+002  9.4400000e+002  9.4700000e+002  9.4800000e+002  9.4900000e+002  9.4800000e+002  9.4500000e+002  9.4500000e+002  9.4700000e+002  9.4900000e+002  9.5000000e+002  9.5100000e+002  9.4700000e+002  9.4500000e+002  9.4700000e+002  9.4700000e+002  9.5000000e+002  9.4900000e+002  9.5000000e+002  9.4900000e+002  9.4900000e+002  9.5000000e+002  9.5300000e+002  9.5100000e+002  9.4800000e+002  9.4900000e+002  9.5000000e+002  9.4800000e+002  9.5100000e+002  9.5000000e+002  9.4900000e+002  9.4600000e+002  9.4800000e+002  9.4900000e+002  9.4800000e+002  9.5000000e+002  9.4900000e+002  9.4800000e+002  9.4700000e+002  9.4700000e+002  9.5000000e+002  9.4900000e+002  9.4900000e+002  9.4800000e+002  9.4800000e+002  9.4800000e+002  9.4800000e+002  9.4900000e+002  9.4600000e+002  9.4500000e+002  9.4700000e+002  9.4700000e+002  9.4900000e+002  9.4900000e+002  9.4700000e+002  9.4700000e+002  9.4600000e+002  9.5000000e+002  9.5100000e+002  9.5100000e+002  9.4900000e+002  9.4700000e+002  9.5400000e+002  9.5500000e+002  9.5900000e+002  9.5900000e+002  9.5800000e+002  9.5900000e+002  9.5900000e+002  9.6100000e+002  9.6100000e+002  9.6100000e+002  9.6400000e+002  9.6400000e+002  9.6700000e+002  9.7000000e+002  9.7100000e+002  9.7200000e+002  9.6900000e+002  9.6700000e+002  9.7100000e+002  9.7300000e+002  9.7400000e+002  9.7000000e+002  9.6800000e+002  9.6700000e+002  9.6700000e+002  9.6800000e+002  9.7000000e+002  9.7000000e+002  9.7000000e+002  9.6700000e+002  9.6800000e+002  9.6900000e+002  9.7000000e+002  9.7100000e+002  9.6900000e+002  9.6600000e+002  9.6700000e+002  9.6700000e+002  9.6900000e+002  9.7000000e+002  9.6800000e+002  9.6500000e+002  9.6800000e+002  9.7000000e+002  9.7000000e+002  9.6900000e+002  9.6700000e+002  9.6400000e+002  9.6500000e+002  9.6600000e+002  9.6500000e+002  9.6400000e+002  9.6600000e+002  9.6300000e+002  9.6500000e+002  9.6600000e+002  9.6500000e+002  9.6600000e+002  9.6200000e+002  9.6000000e+002  9.6100000e+002  9.6100000e+002  9.6400000e+002  9.6300000e+002  9.6100000e+002  9.5800000e+002  9.6000000e+002  9.6300000e+002  9.6100000e+002  9.6300000e+002  9.6100000e+002  9.5900000e+002  9.6200000e+002  9.6500000e+002  9.6400000e+002  9.6300000e+002  9.6200000e+002  9.5900000e+002  9.6100000e+002  9.6100000e+002  9.6300000e+002  9.6300000e+002  9.5900000e+002  9.6000000e+002  9.6000000e+002  9.6200000e+002  9.6300000e+002  9.6000000e+002  9.6000000e+002  9.6000000e+002  9.6200000e+002  9.6300000e+002  9.6600000e+002  9.6700000e+002  9.6600000e+002  9.6300000e+002  9.6200000e+002  9.6400000e+002  9.6400000e+002  9.6200000e+002  9.6100000e+002  9.6100000e+002  9.6200000e+002  9.6500000e+002  9.6400000e+002  9.6500000e+002  9.6100000e+002  9.6200000e+002  9.6600000e+002  9.7100000e+002  9.7600000e+002  9.7300000e+002  9.7600000e+002  9.7400000e+002  9.7900000e+002  9.7900000e+002  9.8100000e+002  9.8200000e+002  9.8400000e+002  9.8500000e+002  9.8500000e+002  9.8800000e+002  9.8900000e+002  9.8800000e+002  9.8300000e+002  9.8100000e+002  9.8200000e+002  9.8200000e+002  9.8200000e+002  9.8200000e+002  9.8100000e+002  9.7900000e+002  9.8200000e+002  9.8800000e+002  9.9000000e+002  9.8700000e+002  9.7600000e+002  9.7300000e+002  9.7300000e+002  9.7000000e+002  9.6900000e+002  9.6700000e+002  9.6400000e+002  9.6400000e+002  9.6100000e+002  9.6300000e+002  9.6400000e+002  9.6500000e+002  9.6400000e+002  9.6100000e+002  9.6200000e+002  9.6200000e+002  9.6400000e+002  9.6400000e+002  9.6300000e+002  9.6100000e+002  9.5900000e+002  9.6000000e+002  9.6000000e+002  9.6000000e+002  9.5900000e+002  9.5600000e+002  9.5700000e+002  9.5900000e+002  9.6100000e+002  9.6000000e+002  9.5500000e+002  9.5000000e+002  9.4500000e+002  9.3900000e+002  9.3500000e+002  9.3100000e+002  9.2200000e+002  9.1800000e+002  9.2700000e+002  9.5000000e+002  9.7700000e+002  1.0060000e+003  1.0450000e+003  1.0990000e+003  1.1550000e+003  1.1880000e+003  1.1970000e+003  1.1710000e+003  1.1140000e+003  1.0360000e+003  9.7000000e+002  9.3800000e+002  9.3200000e+002  9.4100000e+002  9.4700000e+002  9.5100000e+002  9.5300000e+002  9.5300000e+002  9.5500000e+002  9.5400000e+002  9.5400000e+002  9.5200000e+002  9.5500000e+002  9.5600000e+002  9.5600000e+002  9.5700000e+002  9.5700000e+002  9.5300000e+002  9.5500000e+002  9.5600000e+002  9.5700000e+002  9.5600000e+002  9.5400000e+002  9.5100000e+002  9.5200000e+002  9.5100000e+002  9.5400000e+002  9.5500000e+002  9.5100000e+002  9.5200000e+002  9.5400000e+002  9.5300000e+002  9.5400000e+002  9.5300000e+002  9.5400000e+002  9.5200000e+002  9.5700000e+002  9.5700000e+002  9.5800000e+002  9.5600000e+002  9.5400000e+002  9.5400000e+002  9.5500000e+002  9.5700000e+002  9.5500000e+002  9.5300000e+002  9.5300000e+002  9.5000000e+002  9.5300000e+002  9.5400000e+002  9.5500000e+002  9.5100000e+002  9.5100000e+002  9.5000000e+002  9.5100000e+002  9.5300000e+002  9.5500000e+002  9.5500000e+002  9.5500000e+002  9.5600000e+002  9.5700000e+002  9.5900000e+002  9.5700000e+002  9.5500000e+002  9.5400000e+002  9.5400000e+002  9.5300000e+002  9.5300000e+002  9.5200000e+002  9.5400000e+002  9.5200000e+002  9.5100000e+002  9.5500000e+002  9.5500000e+002  9.5800000e+002  9.5400000e+002  9.5500000e+002  9.5300000e+002  9.5400000e+002  9.5600000e+002  9.5700000e+002  9.5400000e+002  9.5100000e+002  9.4800000e+002  9.4700000e+002  9.5300000e+002  9.5200000e+002  9.5300000e+002  9.5000000e+002  9.4700000e+002  9.5000000e+002  9.5000000e+002  9.5400000e+002  9.5500000e+002  9.5100000e+002  9.5100000e+002  9.5200000e+002  9.5500000e+002  9.5800000e+002  9.5800000e+002  9.5800000e+002  9.5700000e+002  9.6100000e+002  9.6200000e+002  9.6700000e+002  9.6600000e+002  9.6600000e+002  9.6400000e+002  9.6800000e+002  9.6900000e+002  9.7200000e+002  9.7200000e+002  9.7000000e+002  9.7100000e+002  9.7300000e+002  9.7400000e+002  9.7500000e+002  9.7500000e+002  9.7300000e+002  9.7100000e+002  9.7200000e+002  9.7300000e+002  9.7600000e+002  9.7400000e+002  9.7300000e+002  9.6900000e+002  9.6900000e+002  9.7100000e+002  9.7000000e+002  9.6900000e+002  9.6800000e+002  9.6600000e+002  9.6800000e+002  9.6900000e+002  9.7000000e+002  9.7000000e+002  9.6800000e+002  9.6600000e+002  9.6800000e+002  9.6700000e+002  9.6900000e+002  9.6600000e+002  9.6800000e+002  9.6600000e+002  9.6800000e+002  9.6700000e+002  9.6900000e+002  9.6800000e+002  9.6500000e+002  9.6300000e+002  9.6400000e+002  9.6400000e+002  9.6300000e+002  9.6100000e+002  9.6000000e+002  9.6200000e+002  9.6200000e+002  9.6400000e+002  9.6200000e+002  9.6200000e+002  9.6000000e+002  9.5900000e+002  9.6200000e+002  9.6000000e+002  9.6200000e+002  9.6200000e+002  9.6100000e+002  9.5900000e+002  9.6100000e+002  9.6300000e+002  9.6100000e+002  9.6200000e+002  9.6000000e+002  9.5900000e+002  9.5900000e+002  9.6000000e+002  9.6300000e+002  9.6300000e+002  9.6400000e+002  9.6100000e+002  9.6400000e+002  9.6200000e+002  9.6100000e+002  9.6300000e+002  9.6200000e+002  9.6000000e+002  9.6200000e+002  9.6400000e+002  9.6500000e+002  9.6400000e+002  9.6100000e+002  9.5900000e+002  9.5900000e+002  9.6300000e+002  9.6200000e+002  9.6600000e+002  9.6100000e+002  9.5900000e+002  9.6000000e+002  9.6600000e+002  9.6800000e+002  9.7200000e+002  9.7200000e+002  9.7100000e+002  9.7200000e+002  9.7400000e+002  9.7800000e+002  9.8000000e+002  9.8000000e+002  9.7700000e+002  9.8000000e+002  9.8300000e+002  9.8300000e+002  9.8200000e+002  9.8200000e+002  9.7800000e+002  9.7600000e+002  9.7800000e+002  9.7900000e+002  9.7700000e+002  9.7400000e+002  9.7100000e+002  9.7200000e+002  9.7500000e+002  9.8100000e+002  9.8100000e+002  9.7500000e+002  9.6800000e+002  9.6900000e+002  9.6900000e+002  9.6500000e+002  9.6200000e+002  9.5900000e+002  9.5600000e+002  9.5600000e+002  9.5900000e+002  9.6100000e+002  9.6200000e+002  9.6100000e+002  9.5800000e+002  9.5800000e+002  9.5900000e+002  9.5900000e+002  9.5700000e+002  9.5500000e+002  9.5400000e+002  9.5400000e+002  9.5400000e+002  9.5500000e+002  9.5400000e+002  9.5100000e+002  9.5200000e+002  9.5400000e+002  9.5300000e+002  9.5500000e+002  9.5500000e+002  9.5400000e+002  9.5100000e+002  9.4800000e+002  9.4300000e+002  9.3900000e+002  9.3600000e+002  9.3000000e+002  9.2000000e+002  9.1600000e+002  9.2600000e+002  9.4600000e+002  9.7200000e+002  1.0010000e+003  1.0410000e+003  1.0960000e+003  1.1470000e+003  1.1800000e+003  1.1910000e+003  1.1680000e+003  1.1060000e+003  1.0300000e+003  9.7300000e+002  9.4100000e+002  9.3000000e+002  9.3100000e+002  9.3700000e+002  9.4500000e+002  9.4900000e+002  9.5000000e+002  9.4900000e+002  9.4900000e+002  9.4600000e+002  9.4400000e+002  9.4800000e+002  9.4700000e+002  9.4700000e+002  9.4700000e+002  9.4700000e+002  9.5000000e+002  9.5000000e+002  9.5200000e+002  9.4800000e+002  9.4800000e+002  9.4700000e+002  9.5000000e+002  9.5000000e+002  9.5100000e+002  9.4900000e+002  9.4700000e+002  9.4600000e+002  9.4600000e+002  9.4700000e+002  9.4700000e+002  9.4500000e+002  9.4600000e+002  9.4400000e+002  9.4300000e+002
  1.0110000e+003  1.0110000e+003  1.0110000e+003  1.0110000e+003  1.0110000e+003  1.0110000e+003  1.0110000e+003  1.0110000e+003  1.0080000e+003  1.0080000e+003  1.0070000e+003  1.0070000e+003  1.0090000e+003  1.0100000e+003  1.0100000e+003  1.0110000e+003  1.0130000e+003  1.0140000e+003  1.0140000e+003  1.0160000e+003  1.0160000e+003  1.0130000e+003  1.0090000e+003  1.0080000e+003  1.0070000e+003  1.0100000e+003  1.0080000e+003  1.0080000e+003  1.0060000e+003  1.0050000e+003  1.0060000e+003  1.0050000e+003  1.0020000e+003  1.0000000e+003  9.9500000e+002  9.9700000e+002  1.0030000e+003  1.0050000e+003  1.0030000e+003  1.0000000e+003  9.9700000e+002  9.9900000e+002  9.9900000e+002  1.0010000e+003  1.0010000e+003  9.9900000e+002  9.9600000e+002  9.9600000e+002  9.9800000e+002  9.9900000e+002  9.9600000e+002  9.9500000e+002  9.9400000e+002  9.9400000e+002  9.9800000e+002  1.0010000e+003  9.9900000e+002  9.9700000e+002  9.9200000e+002  9.8500000e+002  9.8400000e+002  9.8300000e+002  9.7900000e+002  9.7300000e+002  9.6400000e+002  9.6600000e+002  9.7700000e+002  9.9800000e+002  1.0170000e+003  1.0340000e+003  1.0480000e+003  1.0640000e+003  1.0860000e+003  1.1110000e+003  1.1310000e+003  1.1400000e+003  1.1190000e+003  1.0660000e+003  1.0070000e+003  9.7800000e+002  9.7400000e+002  9.8100000e+002  9.8800000e+002  9.8700000e+002  9.9200000e+002  9.9400000e+002  9.9400000e+002  9.8800000e+002  9.8800000e+002  9.9200000e+002  9.9100000e+002  9.9000000e+002  9.9100000e+002  9.8700000e+002  9.8700000e+002  9.8700000e+002  9.9000000e+002  9.9200000e+002  9.9300000e+002  9.8900000e+002  9.8500000e+002  9.8700000e+002  9.8700000e+002  9.8900000e+002  9.8900000e+002  9.8500000e+002  9.8600000e+002  9.8800000e+002  9.9100000e+002  9.9000000e+002  9.9000000e+002  9.9000000e+002  9.8600000e+002  9.8700000e+002  9.8800000e+002  9.9000000e+002  9.8900000e+002  9.8600000e+002  9.8400000e+002  9.8500000e+002  9.8700000e+002  9.9000000e+002  9.9000000e+002  9.8700000e+002  9.8500000e+002  9.8900000e+002  9.8400000e+002  9.8700000e+002  9.8800000e+002  9.8700000e+002  9.8300000e+002  9.8600000e+002  9.8800000e+002  9.8700000e+002  9.8400000e+002  9.8100000e+002  9.8300000e+002  9.8200000e+002  9.8400000e+002  9.8700000e+002  9.8300000e+002  9.8400000e+002  9.8200000e+002  9.8300000e+002  9.8700000e+002  9.8700000e+002  9.8400000e+002  9.8100000e+002  9.7900000e+002  9.8000000e+002  9.8400000e+002  9.8400000e+002  9.8100000e+002  9.7900000e+002  9.7700000e+002  9.7500000e+002  9.7600000e+002  9.7600000e+002  9.7600000e+002  9.7500000e+002  9.7200000e+002  9.7200000e+002  9.7100000e+002  9.7100000e+002  9.6800000e+002  9.6700000e+002  9.6500000e+002  9.6500000e+002  9.6400000e+002  9.6600000e+002  9.6400000e+002  9.6100000e+002  9.6100000e+002  9.6100000e+002  9.6100000e+002  9.6200000e+002  9.6200000e+002  9.5900000e+002  9.5800000e+002  9.5900000e+002  9.6100000e+002  9.6300000e+002  9.6300000e+002  9.6600000e+002  9.6600000e+002  9.6900000e+002  9.7000000e+002  9.7500000e+002  9.7600000e+002  9.7400000e+002  9.7400000e+002  9.7700000e+002  9.8000000e+002  9.8500000e+002  9.8600000e+002  9.8600000e+002  9.8600000e+002  9.8800000e+002  9.9200000e+002  9.9500000e+002  9.9400000e+002  9.9200000e+002  9.9200000e+002  9.9300000e+002  9.9500000e+002  9.9600000e+002  9.9200000e+002  9.9400000e+002  9.8900000e+002  9.9000000e+002  9.9200000e+002  9.9200000e+002  9.9400000e+002  9.9300000e+002  9.9200000e+002  9.9000000e+002  9.9300000e+002  9.9300000e+002  9.9400000e+002  9.9100000e+002  9.8900000e+002  9.9100000e+002  9.9100000e+002  9.9200000e+002  9.9200000e+002  9.8800000e+002  9.8900000e+002  9.8700000e+002  9.9100000e+002  9.9400000e+002  9.9400000e+002  9.9000000e+002  9.8700000e+002  9.8500000e+002  9.8600000e+002  9.8600000e+002  9.8700000e+002  9.8600000e+002  9.8200000e+002  9.8500000e+002  9.8600000e+002  9.8800000e+002  9.8300000e+002  9.8100000e+002  9.7900000e+002  9.8200000e+002  9.8300000e+002  9.8500000e+002  9.8400000e+002  9.8500000e+002  9.8200000e+002  9.8100000e+002  9.8300000e+002  9.8700000e+002  9.8500000e+002  9.8500000e+002  9.8000000e+002  9.8000000e+002  9.8200000e+002  9.8100000e+002  9.8000000e+002  9.8000000e+002  9.7900000e+002  9.8200000e+002  9.8400000e+002  9.8200000e+002  9.7900000e+002  9.7800000e+002  9.7900000e+002  9.8000000e+002  9.7800000e+002  9.8200000e+002  9.8100000e+002  9.8100000e+002  9.7800000e+002  9.8100000e+002  9.8000000e+002  9.8300000e+002  9.8300000e+002  9.8200000e+002  9.8100000e+002  9.7900000e+002  9.8100000e+002  9.8100000e+002  9.8100000e+002  9.7900000e+002  9.7900000e+002  9.7900000e+002  9.8300000e+002  9.8500000e+002  9.8200000e+002  9.8200000e+002  9.8100000e+002  9.7700000e+002  9.7800000e+002  9.8000000e+002  9.8000000e+002  9.7800000e+002  9.7900000e+002  9.7800000e+002  9.8100000e+002  9.8500000e+002  9.8500000e+002  9.8600000e+002  9.8400000e+002  9.8500000e+002  9.8800000e+002  9.9000000e+002  9.8800000e+002  9.8900000e+002  9.8500000e+002  9.8500000e+002  9.9000000e+002  9.8900000e+002  9.8900000e+002  9.8800000e+002  9.8700000e+002  9.8700000e+002  9.8900000e+002  9.8900000e+002  9.8900000e+002  9.8600000e+002  9.8300000e+002  9.8400000e+002  9.8300000e+002  9.8300000e+002  9.8100000e+002  9.8100000e+002  9.7900000e+002  9.8100000e+002  9.8200000e+002  9.8400000e+002  9.8100000e+002  9.7900000e+002  9.7500000e+002  9.7500000e+002  9.7400000e+002  9.7900000e+002  9.7800000e+002  9.7700000e+002  9.7600000e+002  9.7700000e+002  9.7700000e+002  9.8000000e+002  9.7800000e+002  9.7600000e+002  9.7600000e+002  9.7500000e+002  9.7900000e+002  9.7900000e+002  9.7700000e+002  9.7400000e+002  9.7000000e+002  9.6800000e+002  9.6600000e+002  9.6400000e+002  9.5800000e+002  9.5200000e+002  9.5300000e+002  9.6300000e+002  9.8300000e+002  1.0080000e+003  1.0270000e+003  1.0370000e+003  1.0470000e+003  1.0620000e+003  1.0840000e+003  1.1060000e+003  1.1230000e+003  1.1210000e+003  1.0960000e+003  1.0450000e+003  9.9100000e+002  9.5400000e+002  9.3400000e+002  9.3000000e+002  9.3400000e+002  9.4500000e+002  9.5500000e+002  9.6200000e+002  9.6500000e+002  9.6700000e+002  9.6500000e+002  9.6500000e+002  9.6800000e+002  9.6700000e+002  9.6700000e+002  9.6700000e+002  9.6600000e+002  9.6900000e+002  9.6900000e+002  9.6900000e+002  9.7000000e+002  9.6700000e+002  9.6500000e+002  9.6600000e+002  9.6900000e+002  9.7100000e+002  9.7100000e+002  9.6900000e+002  9.6500000e+002  9.6600000e+002  9.6700000e+002  9.7000000e+002  9.7100000e+002  9.6900000e+002  9.6800000e+002  9.6800000e+002  9.7000000e+002  9.7100000e+002  9.7000000e+002  9.7000000e+002  9.6800000e+002  9.7000000e+002  9.7100000e+002  9.7100000e+002  9.7100000e+002  9.7000000e+002  9.6700000e+002  9.6700000e+002  9.7100000e+002  9.7100000e+002  9.7300000e+002  9.6900000e+002  9.6900000e+002  9.6800000e+002  9.7000000e+002  9.7100000e+002  9.6900000e+002  9.6700000e+002  9.6800000e+002  9.6800000e+002  9.6900000e+002  9.6900000e+002  9.6900000e+002  9.6700000e+002  9.6500000e+002  9.6500000e+002  9.6900000e+002  9.6900000e+002  9.6700000e+002  9.6600000e+002  9.6100000e+002  9.6100000e+002  9.6300000e+002  9.6600000e+002  9.6200000e+002  9.6000000e+002  9.6000000e+002  9.5700000e+002  9.5800000e+002  9.5900000e+002  9.5500000e+002  9.5400000e+002  9.5100000e+002  9.5000000e+002  9.5300000e+002  9.5200000e+002  9.5000000e+002  9.4600000e+002  9.4500000e+002  9.4400000e+002  9.4600000e+002  9.4700000e+002  9.4600000e+002  9.4400000e+002  9.4200000e+002  9.4000000e+002  9.4300000e+002  9.4200000e+002  9.4200000e+002  9.4400000e+002  9.4300000e+002  9.4600000e+002  9.4700000e+002  9.5100000e+002  9.5300000e+002  9.5500000e+002  9.5300000e+002  9.5800000e+002  9.6500000e+002  9.6900000e+002  9.7000000e+002  9.7200000e+002  9.7100000e+002  9.7100000e+002  9.7500000e+002  9.7900000e+002  9.8200000e+002  9.8100000e+002  9.8100000e+002  9.8300000e+002  9.8500000e+002  9.8700000e+002  9.8700000e+002  9.8500000e+002  9.8500000e+002  9.8500000e+002  9.8700000e+002  9.9000000e+002  9.8700000e+002  9.8500000e+002  9.8500000e+002  9.8500000e+002  9.8700000e+002  9.8900000e+002  9.8900000e+002  9.8700000e+002  9.8500000e+002  9.8500000e+002  9.8500000e+002  9.8800000e+002  9.8700000e+002  9.8600000e+002  9.8500000e+002  9.8500000e+002  9.8600000e+002  9.8700000e+002  9.8700000e+002  9.8600000e+002  9.8400000e+002  9.8100000e+002  9.8500000e+002  9.8700000e+002  9.8700000e+002  9.8700000e+002  9.8400000e+002  9.8300000e+002  9.8600000e+002  9.8600000e+002  9.8400000e+002  9.8400000e+002  9.8500000e+002  9.8000000e+002  9.8300000e+002  9.8600000e+002  9.8400000e+002  9.8000000e+002  9.7800000e+002  9.8200000e+002  9.8300000e+002  9.8400000e+002  9.8500000e+002  9.8000000e+002  9.7900000e+002  9.7900000e+002  9.8100000e+002  9.8300000e+002  9.8300000e+002  9.8100000e+002  9.7900000e+002  9.8000000e+002  9.7900000e+002  9.8500000e+002  9.8100000e+002  9.8000000e+002  9.8100000e+002  9.7900000e+002  9.8100000e+002  9.8200000e+002  9.8200000e+002  9.7900000e+002  9.7800000e+002  9.8000000e+002  9.8200000e+002  9.8300000e+002  9.8400000e+002  9.8300000e+002  9.8000000e+002  9.7800000e+002  9.8100000e+002  9.8300000e+002  9.8400000e+002  9.7800000e+002  9.8000000e+002  9.8100000e+002  9.8300000e+002  9.8400000e+002  9.8300000e+002  9.8000000e+002  9.8000000e+002  9.7900000e+002  9.8300000e+002  9.8400000e+002  9.8400000e+002  9.8200000e+002  9.7800000e+002  9.8100000e+002  9.8400000e+002  9.8400000e+002  9.8300000e+002  9.8200000e+002  9.8100000e+002  9.8000000e+002  9.8300000e+002  9.8400000e+002  9.8500000e+002  9.8300000e+002  9.8300000e+002  9.8300000e+002  9.8800000e+002  9.9000000e+002  9.8600000e+002  9.8600000e+002  9.8400000e+002  9.8700000e+002  9.9100000e+002  9.9500000e+002  9.9500000e+002  9.9000000e+002  9.8900000e+002  9.9000000e+002  9.9100000e+002  9.9400000e+002  9.9200000e+002  9.8900000e+002  9.8600000e+002  9.8600000e+002  9.8700000e+002  9.8700000e+002  9.8900000e+002  9.8500000e+002  9.8100000e+002  9.8300000e+002  9.8400000e+002  9.8500000e+002  9.8300000e+002  9.8200000e+002  9.8000000e+002  9.8100000e+002  9.8200000e+002  9.8300000e+002  9.8400000e+002  9.8200000e+002  9.8000000e+002  9.8000000e+002  9.8000000e+002  9.8400000e+002  9.8300000e+002  9.8100000e+002  9.7900000e+002  9.8000000e+002  9.8100000e+002  9.8300000e+002  9.8000000e+002  9.7900000e+002  9.7600000e+002  9.7200000e+002  9.6800000e+002  9.6400000e+002  9.5500000e+002  9.4900000e+002  9.5500000e+002  9.7200000e+002  9.9900000e+002  1.0290000e+003  1.0530000e+003  1.0760000e+003  1.0990000e+003  1.1250000e+003  1.1510000e+003  1.1650000e+003  1.1460000e+003  1.0880000e+003  1.0150000e+003  9.7400000e+002  9.7000000e+002  9.7600000e+002  9.7600000e+002  9.7400000e+002  9.7300000e+002  9.7500000e+002  9.7500000e+002  9.7500000e+002  9.7300000e+002  9.7200000e+002  9.7200000e+002  9.7000000e+002  9.7500000e+002  9.7500000e+002  9.7400000e+002  9.7100000e+002  9.7000000e+002  9.7000000e+002  9.7100000e+002  9.7200000e+002  9.7200000e+002  9.7000000e+002  9.6800000e+002  9.6800000e+002  9.7000000e+002  9.7300000e+002  9.7100000e+002  9.6800000e+002  9.6600000e+002  9.6900000e+002  9.7100000e+002  9.7300000e+002  9.7200000e+002  9.7200000e+002  9.6800000e+002  9.6800000e+002  9.7100000e+002  9.7200000e+002  9.7300000e+002  9.7200000e+002  9.6900000e+002  9.7000000e+002  9.6900000e+002  9.7100000e+002  9.7100000e+002  9.7000000e+002  9.6800000e+002  9.6700000e+002  9.6800000e+002  9.7300000e+002  9.7000000e+002  9.6800000e+002  9.6600000e+002  9.6600000e+002  9.7000000e+002  9.7000000e+002  9.6700000e+002  9.6400000e+002  9.6400000e+002  9.6400000e+002  9.6500000e+002  9.6900000e+002  9.6500000e+002  9.6400000e+002  9.6200000e+002  9.6200000e+002  9.6100000e+002  9.6200000e+002  9.6200000e+002  9.5700000e+002  9.5500000e+002  9.5300000e+002  9.5400000e+002  9.5500000e+002  9.5200000e+002  9.5000000e+002  9.4900000e+002  9.4700000e+002  9.5000000e+002  9.5000000e+002  9.4700000e+002  9.4400000e+002  9.4100000e+002  9.4300000e+002  9.4200000e+002  9.4600000e+002  9.4300000e+002  9.4200000e+002  9.3900000e+002  9.4000000e+002  9.4200000e+002  9.4300000e+002  9.4400000e+002  9.4400000e+002  9.4300000e+002  9.4700000e+002  9.5100000e+002  9.5500000e+002  9.5700000e+002  9.5900000e+002  9.6200000e+002  9.6500000e+002  9.6900000e+002  9.7300000e+002  9.7400000e+002  9.7600000e+002  9.7500000e+002  9.7800000e+002  9.8300000e+002  9.8400000e+002  9.8400000e+002  9.8300000e+002  9.8200000e+002  9.8000000e+002  9.8500000e+002  9.8600000e+002  9.8400000e+002  9.8400000e+002  9.8200000e+002  9.8400000e+002  9.8600000e+002  9.8900000e+002  9.8400000e+002  9.8300000e+002  9.8200000e+002  9.8400000e+002  9.8400000e+002  9.8800000e+002  9.8600000e+002  9.8600000e+002  9.8300000e+002  9.8300000e+002  9.8500000e+002  9.8700000e+002  9.8600000e+002  9.8600000e+002  9.8200000e+002  9.8200000e+002  9.8300000e+002  9.8300000e+002  9.8400000e+002  9.8100000e+002  9.7900000e+002  9.8200000e+002  9.8200000e+002  9.8200000e+002  9.8100000e+002  9.7900000e+002  9.7900000e+002  9.7800000e+002  9.8200000e+002  9.8200000e+002  9.7800000e+002  9.7400000e+002  9.7400000e+002  9.7500000e+002  9.7800000e+002  9.8100000e+002  9.7800000e+002  9.7600000e+002  9.7500000e+002  9.7500000e+002  9.7600000e+002  9.8100000e+002  9.7900000e+002  9.7600000e+002  9.7600000e+002  9.7500000e+002  9.7600000e+002  9.7800000e+002  9.7700000e+002  9.7600000e+002  9.7800000e+002  9.7400000e+002  9.7900000e+002  9.8100000e+002  9.7800000e+002  9.7600000e+002  9.7400000e+002  9.7100000e+002  9.7800000e+002  9.8000000e+002  9.7700000e+002  9.7900000e+002  9.7700000e+002  9.7700000e+002  9.7900000e+002  9.7900000e+002  9.8100000e+002  9.7900000e+002  9.7700000e+002  9.7800000e+002  9.7900000e+002  9.7900000e+002  9.7900000e+002  9.7900000e+002  9.7800000e+002  9.7800000e+002  9.8100000e+002  9.8200000e+002  9.7900000e+002  9.7600000e+002  9.7700000e+002  9.7600000e+002  9.7900000e+002  9.8100000e+002  9.8000000e+002  9.8000000e+002  9.7800000e+002  9.7800000e+002  9.8300000e+002  9.8400000e+002  9.8300000e+002  9.8500000e+002  9.8200000e+002  9.8300000e+002  9.8600000e+002  9.8700000e+002  9.8400000e+002  9.8500000e+002  9.8400000e+002  9.8600000e+002  9.9000000e+002  9.9600000e+002  9.9100000e+002  9.9100000e+002  9.8700000e+002  9.8800000e+002  9.9000000e+002  9.9400000e+002  9.9100000e+002  9.8800000e+002  9.8400000e+002  9.8200000e+002  9.8200000e+002  9.8700000e+002  9.8600000e+002  9.8400000e+002  9.8100000e+002  9.8000000e+002  9.8200000e+002  9.8500000e+002  9.8300000e+002  9.8000000e+002  9.7900000e+002  9.7800000e+002  9.8000000e+002  9.8200000e+002  9.8200000e+002  9.7800000e+002  9.7700000e+002  9.7800000e+002  9.7900000e+002  9.8100000e+002  9.8000000e+002  9.8000000e+002  9.7800000e+002  9.7600000e+002  9.8000000e+002  9.7900000e+002  9.7700000e+002  9.7400000e+002  9.6800000e+002  9.6300000e+002  9.5900000e+002  9.5500000e+002  9.4900000e+002  9.4100000e+002  9.3900000e+002  9.4700000e+002  9.6500000e+002  9.8800000e+002  1.0110000e+003  1.0310000e+003  1.0500000e+003  1.0720000e+003  1.0980000e+003  1.1230000e+003  1.1460000e+003  1.1550000e+003  1.1330000e+003  1.0700000e+003  1.0030000e+003  9.6800000e+002  9.6700000e+002  9.7300000e+002  9.7300000e+002  9.7200000e+002  9.7800000e+002  9.8000000e+002  9.7500000e+002  9.7300000e+002  9.7200000e+002  9.7400000e+002  9.7700000e+002  9.7500000e+002  9.7500000e+002  9.7200000e+002  9.7100000e+002  9.7100000e+002  9.7200000e+002  9.7600000e+002  9.7500000e+002  9.7200000e+002  9.7000000e+002  9.7000000e+002  9.7300000e+002  9.7300000e+002  9.7400000e+002  9.7100000e+002  9.7000000e+002  9.7000000e+002  9.7100000e+002  9.7400000e+002  9.7500000e+002  9.7100000e+002  9.7000000e+002  9.7200000e+002  9.7300000e+002  9.7500000e+002  9.7400000e+002  9.7200000e+002  9.7000000e+002  9.7200000e+002  9.7300000e+002  9.7400000e+002  9.7300000e+002  9.7300000e+002  9.6900000e+002  9.7000000e+002  9.7100000e+002  9.7200000e+002  9.7200000e+002  9.6900000e+002  9.7000000e+002  9.7200000e+002  9.7500000e+002  9.7300000e+002  9.7100000e+002  9.7100000e+002  9.7000000e+002  9.7100000e+002  9.7200000e+002  9.7000000e+002  9.7100000e+002  9.7000000e+002  9.6800000e+002  9.6700000e+002  9.6800000e+002  9.6700000e+002  9.6600000e+002  9.6200000e+002  9.6300000e+002  9.6400000e+002  9.6400000e+002  9.6200000e+002  9.5900000e+002  9.5600000e+002  9.5600000e+002  9.5900000e+002  9.6000000e+002  9.5300000e+002  9.5200000e+002  9.4800000e+002  9.4700000e+002  9.4900000e+002  9.5100000e+002  9.4900000e+002  9.4700000e+002  9.4600000e+002  9.4500000e+002  9.4700000e+002  9.4900000e+002  9.4900000e+002  9.4900000e+002  9.4800000e+002  9.5100000e+002  9.5500000e+002  9.5700000e+002  9.6100000e+002  9.6200000e+002  9.6300000e+002  9.6600000e+002  9.7000000e+002  9.7300000e+002  9.7400000e+002  9.7500000e+002  9.7700000e+002  9.7700000e+002  9.7900000e+002  9.8000000e+002  9.8500000e+002  9.8100000e+002  9.7800000e+002  9.8100000e+002  9.8300000e+002  9.8500000e+002  9.8400000e+002  9.8500000e+002  9.8500000e+002  9.8300000e+002  9.8500000e+002  9.8800000e+002  9.8600000e+002  9.8300000e+002  9.8200000e+002  9.8300000e+002  9.8800000e+002  9.8700000e+002  9.8600000e+002  9.8300000e+002  9.8100000e+002  9.8100000e+002  9.8100000e+002  9.8600000e+002  9.8200000e+002  9.8400000e+002  9.8100000e+002  9.8000000e+002  9.7900000e+002  9.8100000e+002  9.8100000e+002  9.7800000e+002  9.7900000e+002  9.7900000e+002  9.8200000e+002  9.8200000e+002  9.8100000e+002  9.7800000e+002  9.7700000e+002  9.7800000e+002  9.8000000e+002  9.8100000e+002  9.7800000e+002  9.7700000e+002  9.7400000e+002  9.7500000e+002  9.7600000e+002  9.8000000e+002  9.7800000e+002  9.7800000e+002  9.7700000e+002  9.7600000e+002  9.7700000e+002  9.8000000e+002  9.7800000e+002  9.7600000e+002  9.7300000e+002  9.7500000e+002  9.7700000e+002  9.8000000e+002  9.7800000e+002  9.7600000e+002  9.7400000e+002  9.7300000e+002  9.7600000e+002  9.7900000e+002  9.7800000e+002  9.7700000e+002  9.7600000e+002  9.7500000e+002  9.7700000e+002  9.7800000e+002  9.7700000e+002  9.7600000e+002  9.7500000e+002  9.7700000e+002  9.7700000e+002  9.7800000e+002  9.7600000e+002  9.7700000e+002  9.7500000e+002  9.7400000e+002  9.7800000e+002  9.8200000e+002  9.7800000e+002  9.7700000e+002  9.7500000e+002  9.7400000e+002  9.7500000e+002  9.7800000e+002  9.7800000e+002  9.7700000e+002  9.7400000e+002  9.7400000e+002  9.7600000e+002  9.7900000e+002  9.7800000e+002  9.7700000e+002  9.7600000e+002  9.7500000e+002  9.7600000e+002  9.7900000e+002  9.7900000e+002  9.7800000e+002  9.7800000e+002  9.7900000e+002  9.8300000e+002  9.8200000e+002  9.8000000e+002  9.8300000e+002  9.8000000e+002  9.8000000e+002  9.8200000e+002  9.8600000e+002  9.8800000e+002  9.8800000e+002  9.8700000e+002  9.8600000e+002  9.8600000e+002  9.8700000e+002  9.8300000e+002  9.8400000e+002  9.8000000e+002  9.8000000e+002  9.8000000e+002  9.8200000e+002  9.7900000e+002  9.8000000e+002  9.7600000e+002  9.7500000e+002  9.7700000e+002  9.7800000e+002  9.7500000e+002  9.7500000e+002  9.7400000e+002  9.7300000e+002  9.7800000e+002  9.7900000e+002  9.7800000e+002  9.7500000e+002  9.7300000e+002  9.7100000e+002  9.7300000e+002  9.7500000e+002  9.7200000e+002  9.7400000e+002  9.7200000e+002  9.7000000e+002  9.7600000e+002  9.7500000e+002  9.7400000e+002  9.7400000e+002  9.7400000e+002  9.7100000e+002  9.7300000e+002  9.7500000e+002  9.7300000e+002  9.7100000e+002  9.6800000e+002  9.6300000e+002  9.6000000e+002  9.5400000e+002  9.4800000e+002  9.4600000e+002  9.5500000e+002  9.7600000e+002  1.0020000e+003  1.0200000e+003  1.0320000e+003  1.0460000e+003  1.0680000e+003  1.0940000e+003  1.1120000e+003  1.1030000e+003  1.0550000e+003  9.9000000e+002  9.4800000e+002  9.4200000e+002  9.5300000e+002  9.6000000e+002  9.6300000e+002  9.6400000e+002  9.6500000e+002  9.6500000e+002  9.6700000e+002  9.6400000e+002  9.6200000e+002  9.6300000e+002  9.6300000e+002  9.6500000e+002  9.7000000e+002  9.7000000e+002  9.6700000e+002  9.6300000e+002  9.6200000e+002  9.6400000e+002  9.6600000e+002  9.6900000e+002  9.6700000e+002  9.6700000e+002  9.6300000e+002  9.6600000e+002  9.6600000e+002  9.6700000e+002  9.6700000e+002  9.6600000e+002  9.6400000e+002  9.6500000e+002  9.6700000e+002  9.6900000e+002  9.6600000e+002  9.6500000e+002  9.6900000e+002  9.6700000e+002  9.6700000e+002  9.7200000e+002  9.7000000e+002  9.7100000e+002  9.6700000e+002  9.6600000e+002  9.6500000e+002  9.6800000e+002  9.6600000e+002  9.6500000e+002  9.6400000e+002  9.6200000e+002  9.6300000e+002  9.6500000e+002  9.6400000e+002  9.6800000e+002  9.6600000e+002  9.6300000e+002  9.6600000e+002  9.6700000e+002  9.6300000e+002  9.6200000e+002  9.6100000e+002  9.6300000e+002  9.6500000e+002  9.6600000e+002  9.6500000e+002  9.6400000e+002  9.6300000e+002  9.5900000e+002  9.6200000e+002  9.6400000e+002  9.6200000e+002  9.5700000e+002  9.5600000e+002  9.5400000e+002  9.5300000e+002  9.5600000e+002  9.5400000e+002  9.5100000e+002  9.4800000e+002  9.4400000e+002  9.4700000e+002  9.4800000e+002  9.4600000e+002  9.4400000e+002  9.4300000e+002  9.4300000e+002  9.4300000e+002  9.4100000e+002  9.4100000e+002  9.4000000e+002  9.4100000e+002  9.3900000e+002  9.4200000e+002  9.4500000e+002  9.4700000e+002  9.4300000e+002  9.4500000e+002  9.4500000e+002  9.4900000e+002  9.5000000e+002  9.4900000e+002  9.4900000e+002  9.5000000e+002  9.5200000e+002  9.5500000e+002  9.6000000e+002  9.6300000e+002  9.6300000e+002  9.6400000e+002  9.6700000e+002  9.6900000e+002  9.7200000e+002  9.7500000e+002  9.7500000e+002  9.7400000e+002  9.7300000e+002  9.7500000e+002  9.7800000e+002  9.7700000e+002  9.7500000e+002  9.7300000e+002  9.7300000e+002  9.7900000e+002  9.7800000e+002  9.7700000e+002  9.7600000e+002  9.7400000e+002  9.7500000e+002  9.7900000e+002  9.8100000e+002  9.8000000e+002  9.7600000e+002  9.7400000e+002  9.7300000e+002  9.7500000e+002  9.7600000e+002  9.7700000e+002  9.7500000e+002  9.7300000e+002  9.7400000e+002  9.7700000e+002  9.7800000e+002  9.7400000e+002  9.7200000e+002  9.6900000e+002  9.6800000e+002  9.6900000e+002  9.7200000e+002  9.7000000e+002  9.7300000e+002  9.7100000e+002  9.7300000e+002  9.7100000e+002  9.7200000e+002  9.7100000e+002  9.7100000e+002  9.6900000e+002  9.7000000e+002  9.7100000e+002  9.7300000e+002  9.7300000e+002  9.7100000e+002  9.6900000e+002  9.6600000e+002  9.6900000e+002  9.7200000e+002  9.7000000e+002  9.7100000e+002  9.7000000e+002  9.7100000e+002  9.7100000e+002  9.7400000e+002  9.7100000e+002  9.7100000e+002  9.7000000e+002  9.7000000e+002  9.7100000e+002  9.7300000e+002  9.7200000e+002  9.7300000e+002  9.7000000e+002  9.7000000e+002  9.6700000e+002  9.7100000e+002  9.7200000e+002  9.7100000e+002  9.7000000e+002  9.7100000e+002  9.7200000e+002  9.7400000e+002  9.7100000e+002  9.7100000e+002  9.7000000e+002  9.7100000e+002  9.7300000e+002  9.7500000e+002  9.7300000e+002  9.6900000e+002  9.6900000e+002  9.6900000e+002  9.7300000e+002  9.7300000e+002  9.7200000e+002  9.7100000e+002  9.6700000e+002  9.6800000e+002  9.7100000e+002  9.7200000e+002  9.7300000e+002  9.7400000e+002  9.7300000e+002  9.7400000e+002  9.7600000e+002  9.7800000e+002  9.7700000e+002  9.7900000e+002  9.7700000e+002  9.7600000e+002  9.7900000e+002  9.8100000e+002  9.7700000e+002  9.7800000e+002  9.7900000e+002  9.8100000e+002  9.8300000e+002  9.8400000e+002  9.8200000e+002  9.7900000e+002  9.7800000e+002  9.7900000e+002  9.8100000e+002  9.8200000e+002  9.7700000e+002  9.7600000e+002  9.7300000e+002  9.7500000e+002  9.7700000e+002  9.7800000e+002  9.7700000e+002  9.7500000e+002  9.7000000e+002  9.7200000e+002  9.7400000e+002  9.7600000e+002  9.7600000e+002  9.7300000e+002  9.7200000e+002  9.7100000e+002  9.7300000e+002  9.7500000e+002  9.7500000e+002  9.7200000e+002  9.7300000e+002  9.7200000e+002  9.7300000e+002  9.7600000e+002  9.7600000e+002  9.7200000e+002  9.7200000e+002  9.7400000e+002  9.7600000e+002  9.7700000e+002  9.7600000e+002  9.7300000e+002  9.7000000e+002  9.6700000e+002  9.6600000e+002  9.6200000e+002  9.5800000e+002  9.5100000e+002  9.5000000e+002  9.5400000e+002  9.7200000e+002  9.9700000e+002  1.0200000e+003  1.0310000e+003  1.0430000e+003  1.0610000e+003  1.0870000e+003  1.1140000e+003  1.1270000e+003  1.1140000e+003  1.0590000e+003  9.8800000e+002  9.4700000e+002  9.4500000e+002  9.5500000e+002  9.6200000e+002  9.6600000e+002  9.6900000e+002  9.7100000e+002  9.7700000e+002  9.7400000e+002  9.7100000e+002  9.7300000e+002  9.7500000e+002  9.7600000e+002  9.7600000e+002  9.7400000e+002  9.7200000e+002  9.7100000e+002  9.6900000e+002  9.7300000e+002  9.7600000e+002  9.7500000e+002  9.7200000e+002  9.7200000e+002  9.7100000e+002  9.7400000e+002  9.7400000e+002  9.7500000e+002  9.7400000e+002  9.7100000e+002  9.7300000e+002  9.7400000e+002  9.7500000e+002  9.7500000e+002  9.7300000e+002  9.7200000e+002  9.7400000e+002  9.7600000e+002  9.8100000e+002  9.7800000e+002  9.7400000e+002  9.7400000e+002  9.7300000e+002  9.7600000e+002  9.8000000e+002  9.7700000e+002  9.7700000e+002  9.7600000e+002  9.7300000e+002  9.7500000e+002  9.7900000e+002  9.7800000e+002  9.7700000e+002  9.7600000e+002  9.7600000e+002  9.7600000e+002  9.7800000e+002  9.7500000e+002  9.7300000e+002  9.7400000e+002  9.7400000e+002  9.7700000e+002  9.7600000e+002  9.7700000e+002  9.7300000e+002  9.7300000e+002  9.7300000e+002  9.7400000e+002  9.7700000e+002  9.7200000e+002  9.7300000e+002  9.7000000e+002  9.6700000e+002  9.6700000e+002  9.6800000e+002  9.6700000e+002  9.6700000e+002  9.6300000e+002  9.6500000e+002  9.6700000e+002  9.6600000e+002  9.6300000e+002  9.6000000e+002  9.5700000e+002  9.5600000e+002  9.6100000e+002  9.6100000e+002  9.5800000e+002  9.5500000e+002  9.5400000e+002  9.5300000e+002  9.5100000e+002  9.5300000e+002  9.5100000e+002  9.5000000e+002  9.4900000e+002  9.4900000e+002  9.5000000e+002  9.5300000e+002  9.5200000e+002  9.5600000e+002  9.5600000e+002  9.5800000e+002  9.6100000e+002  9.6600000e+002  9.6900000e+002  9.7100000e+002  9.7200000e+002  9.7500000e+002  9.7900000e+002  9.8300000e+002  9.8400000e+002  9.8600000e+002  9.8400000e+002  9.8700000e+002  9.8900000e+002  9.9200000e+002  9.9300000e+002  9.9100000e+002  9.9200000e+002  9.9000000e+002  9.9400000e+002  9.9500000e+002  9.9400000e+002  9.9500000e+002  9.9500000e+002  9.9300000e+002  9.9400000e+002  9.9700000e+002  9.9500000e+002  9.9500000e+002  9.9400000e+002  9.9500000e+002  9.9600000e+002  9.9800000e+002  9.9700000e+002  9.9600000e+002  9.9500000e+002  9.9100000e+002  9.9300000e+002  9.9500000e+002  9.9400000e+002  9.9200000e+002  9.9200000e+002  9.9200000e+002  9.9500000e+002  9.9600000e+002  9.9400000e+002  9.9100000e+002  9.9000000e+002  9.9100000e+002  9.9100000e+002  9.9400000e+002  9.9400000e+002  9.9100000e+002  9.9000000e+002  9.8800000e+002  9.9100000e+002  9.9300000e+002  9.9200000e+002  9.9100000e+002  9.8900000e+002  9.8800000e+002  9.9100000e+002  9.9400000e+002  9.9000000e+002  9.9000000e+002  9.8700000e+002  9.8900000e+002  9.8900000e+002  9.9200000e+002  9.9100000e+002  9.9000000e+002  9.8800000e+002  9.8900000e+002  9.9000000e+002  9.9200000e+002  9.9200000e+002  9.9000000e+002  9.8600000e+002  9.9100000e+002  9.9200000e+002  9.9300000e+002  9.9200000e+002  9.9300000e+002  9.9100000e+002  9.8700000e+002  9.8900000e+002  9.9400000e+002  9.9300000e+002  9.9100000e+002  9.9000000e+002  9.9000000e+002  9.9100000e+002  9.9400000e+002  9.9200000e+002  9.9000000e+002  9.8900000e+002  9.8800000e+002  9.9300000e+002  9.9400000e+002  9.9500000e+002  9.9200000e+002  9.9100000e+002  9.9200000e+002  9.9200000e+002  9.9500000e+002  9.9400000e+002  9.9400000e+002  9.9200000e+002  9.9200000e+002  9.9400000e+002  9.9400000e+002  9.9400000e+002  9.9300000e+002  9.9200000e+002  9.9200000e+002  9.9400000e+002  9.9800000e+002  9.9400000e+002  9.9300000e+002  9.9200000e+002  9.9400000e+002  9.9900000e+002  1.0000000e+003  1.0010000e+003  9.9900000e+002  9.9700000e+002  9.9600000e+002  9.9800000e+002  1.0030000e+003  1.0030000e+003  1.0040000e+003  1.0030000e+003  1.0060000e+003  1.0080000e+003  1.0090000e+003  1.0060000e+003  1.0060000e+003  1.0040000e+003  1.0040000e+003  1.0050000e+003  1.0060000e+003  1.0020000e+003  9.9900000e+002  9.9800000e+002  1.0000000e+003  1.0000000e+003  1.0020000e+003  1.0020000e+003  1.0000000e+003  9.9800000e+002  9.9600000e+002  9.9500000e+002  9.9900000e+002  9.9800000e+002  9.9400000e+002  9.9500000e+002  9.9600000e+002  9.9600000e+002  1.0000000e+003  9.9700000e+002  9.9500000e+002  9.9200000e+002  9.9400000e+002  9.9700000e+002  9.9900000e+002  9.9700000e+002  9.9500000e+002  9.9400000e+002  9.9200000e+002  9.9500000e+002  9.9700000e+002  9.9700000e+002  9.9900000e+002  9.9200000e+002  9.8900000e+002  9.8500000e+002  9.8200000e+002  9.7800000e+002  9.7000000e+002  9.6600000e+002  9.6800000e+002  9.8500000e+002  1.0140000e+003  1.0410000e+003  1.0630000e+003  1.0850000e+003  1.1080000e+003  1.1370000e+003  1.1650000e+003  1.1840000e+003  1.1830000e+003  1.1430000e+003  1.0710000e+003  1.0090000e+003  9.8600000e+002  9.8700000e+002  9.9300000e+002  9.9000000e+002  9.9100000e+002  9.9300000e+002  9.9500000e+002  9.9300000e+002  9.8600000e+002  9.8400000e+002  9.8500000e+002  9.8900000e+002  9.8900000e+002  9.8800000e+002  9.8700000e+002  9.8400000e+002  9.8500000e+002  9.8400000e+002  9.8500000e+002  9.8600000e+002  9.8500000e+002  9.8400000e+002  9.8400000e+002  9.8600000e+002  9.8800000e+002  9.8700000e+002  9.8500000e+002  9.8200000e+002  9.8200000e+002  9.8900000e+002  9.8600000e+002  9.8700000e+002  9.8700000e+002  9.8500000e+002  9.8400000e+002  9.8500000e+002  9.8800000e+002  9.8600000e+002  9.8500000e+002  9.8600000e+002  9.8500000e+002  9.8900000e+002  9.8900000e+002  9.8700000e+002  9.8600000e+002  9.8500000e+002  9.8600000e+002  9.8700000e+002  9.9000000e+002  9.9000000e+002  9.8600000e+002  9.8400000e+002  9.8400000e+002  9.8800000e+002  9.8900000e+002  9.8500000e+002  9.8900000e+002  9.8600000e+002  9.8600000e+002  9.8600000e+002  9.8800000e+002  9.8600000e+002  9.8200000e+002  9.8300000e+002  9.8400000e+002  9.8200000e+002  9.8500000e+002  9.8300000e+002  9.8100000e+002  9.7800000e+002  9.8100000e+002  9.7900000e+002  9.8300000e+002  9.8100000e+002  9.7700000e+002  9.7500000e+002  9.7500000e+002  9.7600000e+002  9.7500000e+002  9.7700000e+002  9.7200000e+002  9.7100000e+002  9.7000000e+002  9.7100000e+002  9.7100000e+002  9.7000000e+002  9.6700000e+002  9.6400000e+002  9.6500000e+002  9.6500000e+002  9.6500000e+002  9.6300000e+002  9.6200000e+002  9.6000000e+002  9.5900000e+002  9.6000000e+002  9.6200000e+002  9.6000000e+002  9.6000000e+002  9.5900000e+002  9.6200000e+002  9.6800000e+002  9.6800000e+002  9.6800000e+002  9.7100000e+002  9.7100000e+002  9.7400000e+002  9.7900000e+002  9.8400000e+002  9.8500000e+002  9.8600000e+002  9.8800000e+002  9.9000000e+002  9.9400000e+002  9.9700000e+002  1.0010000e+003  9.9900000e+002  9.9800000e+002  1.0000000e+003  1.0030000e+003  1.0040000e+003  1.0040000e+003  1.0040000e+003  1.0010000e+003  1.0000000e+003  1.0030000e+003  1.0040000e+003  1.0030000e+003  1.0010000e+003  1.0000000e+003  1.0020000e+003  1.0030000e+003  1.0050000e+003  1.0040000e+003  1.0020000e+003  1.0000000e+003  1.0000000e+003  1.0010000e+003  1.0030000e+003  1.0030000e+003  1.0050000e+003  1.0030000e+003  1.0000000e+003  1.0010000e+003  1.0030000e+003  1.0020000e+003  9.9900000e+002  1.0010000e+003  9.9800000e+002  1.0010000e+003  1.0050000e+003  1.0040000e+003  1.0020000e+003  1.0010000e+003  1.0010000e+003  1.0030000e+003  1.0040000e+003  1.0020000e+003  1.0040000e+003  1.0040000e+003  1.0030000e+003  1.0050000e+003  1.0050000e+003  1.0050000e+003  1.0020000e+003  1.0010000e+003  1.0020000e+003  1.0030000e+003  1.0030000e+003  1.0010000e+003  1.0010000e+003  9.9700000e+002  9.9900000e+002  9.9700000e+002  9.9900000e+002  9.9800000e+002  9.9400000e+002  9.9300000e+002  9.9100000e+002  9.9100000e+002  9.9000000e+002  9.8900000e+002  9.9000000e+002  9.8900000e+002  9.9000000e+002  9.9100000e+002  9.9200000e+002  9.9200000e+002  9.9000000e+002  9.8800000e+002  9.9000000e+002  9.9300000e+002  9.9300000e+002  9.9200000e+002  9.9200000e+002  9.8900000e+002  9.9000000e+002  9.9300000e+002  9.9400000e+002  9.9200000e+002  9.9300000e+002  9.9100000e+002  9.9200000e+002  9.9400000e+002  9.9400000e+002  9.9500000e+002  9.9300000e+002  9.9100000e+002  9.9300000e+002  9.9700000e+002  9.9800000e+002  9.9500000e+002  9.9300000e+002  9.9200000e+002  9.9200000e+002  9.8900000e+002  9.8600000e+002  9.7700000e+002  9.7400000e+002  9.6500000e+002  9.6100000e+002  9.6500000e+002  9.8600000e+002  1.0070000e+003  1.0360000e+003  1.0590000e+003  1.0770000e+003  1.1000000e+003  1.1210000e+003  1.1420000e+003  1.1570000e+003  1.1570000e+003  1.1240000e+003  1.0650000e+003  1.0090000e+003  9.8100000e+002  9.8300000e+002  9.8800000e+002  9.8900000e+002  9.9100000e+002  9.9500000e+002  9.9500000e+002  9.9200000e+002  9.9100000e+002  9.9000000e+002  9.9300000e+002  9.9300000e+002  9.9300000e+002  9.9000000e+002  9.8900000e+002  9.9000000e+002  9.9300000e+002  9.9300000e+002  9.9200000e+002  9.9100000e+002  9.8800000e+002  9.8900000e+002  9.9000000e+002  9.9200000e+002  9.9200000e+002  9.9000000e+002  9.8800000e+002  9.8800000e+002  9.9000000e+002  9.9100000e+002  9.9100000e+002  9.8900000e+002  9.8800000e+002  9.8700000e+002  9.9000000e+002  9.9200000e+002  9.9100000e+002  9.8900000e+002  9.8900000e+002  9.8900000e+002  9.8800000e+002  9.9000000e+002  9.9200000e+002  9.9000000e+002  9.8800000e+002  9.8700000e+002  9.9000000e+002  9.9200000e+002  9.8800000e+002  9.8800000e+002  9.8700000e+002  9.8700000e+002  9.9100000e+002  9.9300000e+002  9.9000000e+002  9.8900000e+002  9.8500000e+002  9.8500000e+002  9.8600000e+002  9.8900000e+002  9.8900000e+002  9.8600000e+002  9.8600000e+002  9.8600000e+002  9.8700000e+002  9.8600000e+002  9.8100000e+002  9.8000000e+002  9.8100000e+002  9.7900000e+002  9.8100000e+002  9.8400000e+002  9.7800000e+002  9.7900000e+002  9.7500000e+002  9.7600000e+002  9.7500000e+002  9.8000000e+002  9.7500000e+002  9.7200000e+002  9.6800000e+002  9.6800000e+002  9.6700000e+002  9.7000000e+002  9.6700000e+002  9.6500000e+002  9.6300000e+002  9.6300000e+002  9.6100000e+002  9.6300000e+002  9.6200000e+002  9.5800000e+002  9.5900000e+002  9.5800000e+002  9.6100000e+002  9.6200000e+002  9.6100000e+002  9.6200000e+002  9.6000000e+002  9.6300000e+002  9.6600000e+002  9.6900000e+002  9.7000000e+002  9.7100000e+002  9.7100000e+002  9.7300000e+002  9.7500000e+002  9.7900000e+002  9.8100000e+002  9.8100000e+002  9.8100000e+002  9.8200000e+002  9.8300000e+002  9.8700000e+002  9.8800000e+002  9.8600000e+002  9.8600000e+002  9.9000000e+002  9.9300000e+002  9.9600000e+002  9.9500000e+002  9.9100000e+002  9.9200000e+002  9.9200000e+002  9.9400000e+002  9.9500000e+002  9.9600000e+002  9.9400000e+002  9.9400000e+002  9.9000000e+002  9.9300000e+002  9.9500000e+002  9.9800000e+002  9.9600000e+002  9.9400000e+002  9.9500000e+002  9.9400000e+002  9.9700000e+002  9.9600000e+002  9.9300000e+002  9.9400000e+002  9.9100000e+002  9.9500000e+002  9.9500000e+002  9.9300000e+002  9.9200000e+002  9.9200000e+002  9.8900000e+002  9.9300000e+002  9.9300000e+002  9.9400000e+002  9.9200000e+002  9.9100000e+002  9.9100000e+002  9.8900000e+002  9.9100000e+002  9.9100000e+002  9.9100000e+002  9.9000000e+002  9.9100000e+002  9.9200000e+002  9.9200000e+002  9.9100000e+002  9.9000000e+002  9.8500000e+002  9.8700000e+002  9.8800000e+002  9.9000000e+002  9.9100000e+002  9.8700000e+002  9.8800000e+002  9.8700000e+002  9.9000000e+002  9.8900000e+002  9.8900000e+002  9.8900000e+002  9.8800000e+002  9.8900000e+002  9.9300000e+002  9.9200000e+002  9.9000000e+002  9.8800000e+002  9.8400000e+002  9.8500000e+002  9.9100000e+002  9.9200000e+002  9.9200000e+002  9.9100000e+002  9.8700000e+002  9.8600000e+002  9.8800000e+002  9.9000000e+002  9.9000000e+002  9.9000000e+002  9.8800000e+002  9.8800000e+002  9.9000000e+002  9.8800000e+002  9.8800000e+002  9.8400000e+002  9.8500000e+002  9.8500000e+002  9.9300000e+002  9.9500000e+002  9.9100000e+002  9.8800000e+002  9.8700000e+002  9.8800000e+002  9.9000000e+002  9.9200000e+002  9.9200000e+002  9.9000000e+002  9.8800000e+002  9.8600000e+002  9.8800000e+002  9.9100000e+002  9.9000000e+002  9.8700000e+002  9.8500000e+002  9.8700000e+002  9.8700000e+002  9.8700000e+002  9.8700000e+002  9.8600000e+002  9.8800000e+002  9.8600000e+002  9.8600000e+002  9.8800000e+002  9.8600000e+002  9.8600000e+002  9.8500000e+002  9.8500000e+002  9.8700000e+002  9.8900000e+002  9.8500000e+002  9.8800000e+002  9.8800000e+002  9.8700000e+002  9.8600000e+002  9.8900000e+002  9.8600000e+002  9.8600000e+002  9.8200000e+002  9.8300000e+002  9.8700000e+002  9.8800000e+002  9.8800000e+002  9.8600000e+002  9.8100000e+002  9.8000000e+002  9.8300000e+002  9.8500000e+002  9.8600000e+002  9.8500000e+002  9.8100000e+002  9.7700000e+002  9.8200000e+002  9.8400000e+002  9.8200000e+002  9.8300000e+002  9.8100000e+002  9.8100000e+002  9.8300000e+002  9.8400000e+002  9.8600000e+002  9.8000000e+002  9.7900000e+002  9.7900000e+002  9.8300000e+002  9.8400000e+002  9.8300000e+002  9.8300000e+002  9.8200000e+002  9.8200000e+002  9.8500000e+002  9.8500000e+002  9.8500000e+002  9.8400000e+002  9.7900000e+002  9.7900000e+002  9.8300000e+002  9.8600000e+002  9.8500000e+002  9.8600000e+002  9.8400000e+002  9.8700000e+002  9.8800000e+002  9.9100000e+002  9.9000000e+002  9.8800000e+002  9.8900000e+002  9.9000000e+002  9.9100000e+002  9.9400000e+002  9.9300000e+002  9.9100000e+002  9.9000000e+002  9.9100000e+002  9.9100000e+002  9.9300000e+002  9.9000000e+002  9.8800000e+002  9.9000000e+002  9.9100000e+002  9.9200000e+002  9.9200000e+002  9.8800000e+002  9.8600000e+002  9.8300000e+002  9.8600000e+002  9.8600000e+002  9.9000000e+002  9.8700000e+002  9.8600000e+002  9.8500000e+002  9.7900000e+002  9.8100000e+002  9.8400000e+002  9.8300000e+002  9.8300000e+002  9.8300000e+002  9.8000000e+002  9.8200000e+002  9.8200000e+002  9.8200000e+002  9.8100000e+002  9.7900000e+002  9.7700000e+002  9.7800000e+002  9.8300000e+002  9.8100000e+002  9.7900000e+002  9.7900000e+002  9.8000000e+002  9.8000000e+002  9.8100000e+002  9.7900000e+002  9.7900000e+002  9.7300000e+002  9.6900000e+002  9.6600000e+002  9.6600000e+002  9.6100000e+002  9.5800000e+002  9.6300000e+002  9.7500000e+002  1.0010000e+003  1.0190000e+003  1.0300000e+003  1.0400000e+003  1.0550000e+003  1.0770000e+003  1.1010000e+003  1.1240000e+003  1.1330000e+003  1.1140000e+003  1.0670000e+003  1.0060000e+003  9.5900000e+002  9.4600000e+002  9.4700000e+002  9.5100000e+002  9.5700000e+002  9.6500000e+002  9.6700000e+002  9.7000000e+002  9.7100000e+002  9.7000000e+002  9.6900000e+002  9.6700000e+002  9.7100000e+002  9.7400000e+002  9.7200000e+002  9.7200000e+002  9.7100000e+002  9.7000000e+002  9.7100000e+002  9.7500000e+002  9.7200000e+002  9.7300000e+002  9.6800000e+002  9.7200000e+002  9.7400000e+002  9.7400000e+002  9.7300000e+002  9.7300000e+002  9.7200000e+002  9.7200000e+002  9.7300000e+002  9.7900000e+002  9.7600000e+002  9.7500000e+002  9.7100000e+002  9.6900000e+002  9.7400000e+002  9.7500000e+002  9.7800000e+002  9.7600000e+002  9.7300000e+002  9.7400000e+002  9.7400000e+002  9.7500000e+002  9.7700000e+002  9.7600000e+002  9.7400000e+002  9.7400000e+002  9.7500000e+002  9.8000000e+002  9.7500000e+002  9.7500000e+002  9.7600000e+002  9.7300000e+002  9.7500000e+002  9.7900000e+002  9.7600000e+002  9.7400000e+002  9.7200000e+002  9.7100000e+002  9.7300000e+002  9.7600000e+002  9.7400000e+002  9.7400000e+002  9.7100000e+002  9.7200000e+002  9.7200000e+002  9.7100000e+002  9.6900000e+002  9.7000000e+002  9.7000000e+002  9.7000000e+002  9.7000000e+002  9.7500000e+002  9.7100000e+002  9.7100000e+002  9.7000000e+002  9.6700000e+002  9.7200000e+002  9.7500000e+002  9.7300000e+002  9.7100000e+002  9.6700000e+002  9.6500000e+002  9.6400000e+002  9.6500000e+002  9.6700000e+002  9.6000000e+002  9.5900000e+002  9.5700000e+002  9.5700000e+002  9.5800000e+002  9.5400000e+002  9.5500000e+002  9.5100000e+002  9.4800000e+002  9.4900000e+002  9.4900000e+002  9.4700000e+002  9.4700000e+002  9.4400000e+002  9.4400000e+002  9.4500000e+002  9.4600000e+002  9.4600000e+002  9.4400000e+002  9.4300000e+002  9.4200000e+002  9.4800000e+002  9.5300000e+002  9.5400000e+002  9.5600000e+002  9.5500000e+002  9.5700000e+002  9.6200000e+002  9.6700000e+002  9.6800000e+002  9.7000000e+002  9.7300000e+002  9.7500000e+002  9.7700000e+002  9.8200000e+002  9.8100000e+002  9.8000000e+002  9.8000000e+002  9.8100000e+002  9.8600000e+002  9.8800000e+002  9.8800000e+002  9.8700000e+002  9.8500000e+002  9.8500000e+002  9.8600000e+002  9.9000000e+002  9.9000000e+002  9.8700000e+002  9.8700000e+002  9.8700000e+002  9.8800000e+002  9.9000000e+002  9.8600000e+002  9.8800000e+002  9.8500000e+002  9.8600000e+002  9.9000000e+002  9.9000000e+002  9.8900000e+002  9.8600000e+002  9.8500000e+002  9.8600000e+002  9.8700000e+002  9.8700000e+002  9.8800000e+002  9.8700000e+002  9.8600000e+002  9.8300000e+002  9.8500000e+002  9.8700000e+002  9.8700000e+002  9.8700000e+002  9.8300000e+002  9.8300000e+002  9.8800000e+002  9.8500000e+002  9.8500000e+002  9.8300000e+002  9.8200000e+002  9.7900000e+002  9.8200000e+002  9.8400000e+002  9.8400000e+002  9.8300000e+002  9.8200000e+002  9.7900000e+002  9.8200000e+002  9.8400000e+002  9.8400000e+002  9.8300000e+002  9.8200000e+002  9.8400000e+002  9.8500000e+002  9.8700000e+002  9.8300000e+002  9.8200000e+002  9.8000000e+002  9.8100000e+002  9.8300000e+002  9.8400000e+002  9.8100000e+002  9.8200000e+002  9.7900000e+002  9.8000000e+002  9.8100000e+002  9.8400000e+002  9.8200000e+002  9.8300000e+002  9.8100000e+002  9.8100000e+002  9.8100000e+002  9.8400000e+002  9.8400000e+002  9.8200000e+002  9.8000000e+002  9.8200000e+002  9.8500000e+002  9.8400000e+002  9.8600000e+002  9.8200000e+002  9.8000000e+002  9.8100000e+002  9.8400000e+002  9.8700000e+002  9.8500000e+002  9.8400000e+002  9.8400000e+002  9.8300000e+002  9.8500000e+002  9.8700000e+002  9.8600000e+002  9.8500000e+002  9.8400000e+002  9.8400000e+002  9.8400000e+002  9.8600000e+002  9.8400000e+002  9.8600000e+002  9.8400000e+002  9.8500000e+002  9.8800000e+002  9.9200000e+002  9.8800000e+002  9.8800000e+002  9.8700000e+002  9.8800000e+002  9.9200000e+002  9.9500000e+002  9.9300000e+002  9.9000000e+002  9.9000000e+002  9.9300000e+002  9.9500000e+002  9.9800000e+002  9.9700000e+002  9.9600000e+002  9.9700000e+002  9.9600000e+002  9.9600000e+002  9.9900000e+002  9.9800000e+002  9.9400000e+002  9.9100000e+002  9.9100000e+002  9.9100000e+002  9.9300000e+002  9.9400000e+002  9.9100000e+002  9.8800000e+002  9.8500000e+002  9.8900000e+002  9.9000000e+002  9.8900000e+002  9.8700000e+002  9.8500000e+002  9.8600000e+002  9.8900000e+002  9.8700000e+002  9.8600000e+002  9.8300000e+002  9.8100000e+002  9.8100000e+002  9.8500000e+002  9.8800000e+002  9.8600000e+002  9.8400000e+002  9.8400000e+002  9.8100000e+002  9.8400000e+002  9.8800000e+002  9.8500000e+002  9.8400000e+002  9.8300000e+002  9.8200000e+002  9.8400000e+002  9.8300000e+002  9.7700000e+002  9.7200000e+002  9.6700000e+002  9.6400000e+002  9.5900000e+002  9.6000000e+002  9.6600000e+002  9.8600000e+002  1.0130000e+003  1.0340000e+003  1.0540000e+003  1.0730000e+003  1.0930000e+003  1.1130000e+003  1.1300000e+003  1.1430000e+003  1.1280000e+003  1.0790000e+003  1.0070000e+003  9.6400000e+002  9.5700000e+002  9.6700000e+002  9.7400000e+002  9.7500000e+002  9.7700000e+002  9.8100000e+002  9.7800000e+002  9.7800000e+002  9.7600000e+002  9.7700000e+002  9.7700000e+002  9.7500000e+002  9.7300000e+002  9.7400000e+002  9.7600000e+002  9.7900000e+002  9.7800000e+002  9.7400000e+002  9.7600000e+002  9.7300000e+002  9.7800000e+002  9.7900000e+002  9.7900000e+002  9.7900000e+002  9.7800000e+002  9.7600000e+002  9.7900000e+002  9.8100000e+002  9.8100000e+002  9.7900000e+002  9.7700000e+002  9.7600000e+002  9.7900000e+002  9.8300000e+002  9.8200000e+002  9.7900000e+002  9.7800000e+002  9.7700000e+002  9.7900000e+002  9.8100000e+002  9.8000000e+002  9.7800000e+002  9.7700000e+002  9.7800000e+002  9.8100000e+002  9.8100000e+002  9.8100000e+002  9.7900000e+002  9.7700000e+002  9.7700000e+002  9.7800000e+002  9.8100000e+002  9.7900000e+002  9.7900000e+002  9.7700000e+002  9.7500000e+002  9.7600000e+002  9.7900000e+002  9.8200000e+002  9.7800000e+002  9.7800000e+002  9.7500000e+002  9.8000000e+002  9.7900000e+002  9.7700000e+002  9.7500000e+002  9.7400000e+002  9.7400000e+002  9.7600000e+002  9.7600000e+002  9.7500000e+002  9.7400000e+002  9.7000000e+002  9.7000000e+002  9.7100000e+002  9.7200000e+002  9.6800000e+002  9.6500000e+002  9.6500000e+002  9.6100000e+002  9.6200000e+002  9.6300000e+002  9.6200000e+002  9.5900000e+002  9.5800000e+002  9.5400000e+002  9.5600000e+002  9.5700000e+002  9.5400000e+002  9.5400000e+002  9.5000000e+002  9.5100000e+002  9.5300000e+002  9.5700000e+002  9.5300000e+002  9.5100000e+002  9.5000000e+002  9.5200000e+002  9.5700000e+002  9.6100000e+002  9.6100000e+002  9.6300000e+002  9.6700000e+002  9.6700000e+002  9.7000000e+002  9.7600000e+002  9.7800000e+002  9.8000000e+002  9.8000000e+002  9.8400000e+002  9.8800000e+002  9.8900000e+002  9.8800000e+002  9.8700000e+002  9.8600000e+002  9.8700000e+002  9.8800000e+002  9.8900000e+002  9.9000000e+002  9.9100000e+002  9.8900000e+002  9.9000000e+002  9.9100000e+002  9.9300000e+002  9.9200000e+002  9.9200000e+002  9.9100000e+002  9.9100000e+002  9.9200000e+002  9.9500000e+002  9.9400000e+002  9.9200000e+002  9.9100000e+002  9.8900000e+002  9.9400000e+002  9.9600000e+002  9.9300000e+002  9.9200000e+002  9.8900000e+002  9.8900000e+002  9.9000000e+002  9.9200000e+002  9.9300000e+002  9.9100000e+002  9.8900000e+002  9.8800000e+002  9.9000000e+002  9.9100000e+002  9.9000000e+002  9.8700000e+002  9.8700000e+002  9.8800000e+002  9.8900000e+002  9.9000000e+002  9.8800000e+002  9.8700000e+002  9.8400000e+002  9.8500000e+002  9.8700000e+002  9.8900000e+002  9.8800000e+002  9.8700000e+002  9.8300000e+002  9.8200000e+002  9.8600000e+002  9.8700000e+002  9.8600000e+002  9.8400000e+002  9.8300000e+002  9.8100000e+002  9.8400000e+002  9.8800000e+002  9.8700000e+002  9.8400000e+002  9.8300000e+002  9.8400000e+002  9.8300000e+002  9.8600000e+002  9.8600000e+002  9.8800000e+002  9.8300000e+002  9.8400000e+002  9.8500000e+002  9.8800000e+002  9.8700000e+002  9.8700000e+002  9.8400000e+002  9.8400000e+002  9.8800000e+002  9.8800000e+002  9.8700000e+002  9.8700000e+002  9.8400000e+002  9.8500000e+002  9.8900000e+002  9.8900000e+002  9.8700000e+002  9.8600000e+002  9.8500000e+002  9.8300000e+002  9.8700000e+002  9.9200000e+002  9.9000000e+002  9.8600000e+002  9.8600000e+002  9.8600000e+002  9.8800000e+002  9.9000000e+002  9.9200000e+002  9.9000000e+002  9.8700000e+002  9.8500000e+002  9.8800000e+002  9.8900000e+002  9.9000000e+002  9.9000000e+002  9.8500000e+002  9.8400000e+002  9.8800000e+002  9.9000000e+002  9.8900000e+002  9.8800000e+002  9.8800000e+002  9.9000000e+002  9.9300000e+002  9.9700000e+002  9.9500000e+002  9.9200000e+002  9.9200000e+002  9.9200000e+002  9.9600000e+002  1.0000000e+003  1.0000000e+003  9.9800000e+002  9.9800000e+002  9.9900000e+002  9.9900000e+002  1.0010000e+003  1.0020000e+003  9.9800000e+002  9.9500000e+002  9.9300000e+002  9.9600000e+002  9.9600000e+002  9.9500000e+002  9.9400000e+002  9.9200000e+002  9.9100000e+002  9.9200000e+002  9.9400000e+002  9.9100000e+002  9.8700000e+002  9.8800000e+002  9.8700000e+002  9.9000000e+002  9.9300000e+002  9.8900000e+002  9.8600000e+002  9.8500000e+002  9.8500000e+002  9.8800000e+002  9.8900000e+002  9.8800000e+002  9.8800000e+002  9.8600000e+002  9.9000000e+002  9.8800000e+002  9.8900000e+002  9.8800000e+002  9.8700000e+002  9.8400000e+002  9.8500000e+002  9.8400000e+002  9.7900000e+002  9.7300000e+002  9.6500000e+002  9.5800000e+002  9.5600000e+002  9.6300000e+002  9.8500000e+002  1.0110000e+003  1.0380000e+003  1.0600000e+003  1.0810000e+003  1.1070000e+003  1.1350000e+003  1.1580000e+003  1.1640000e+003  1.1350000e+003  1.0660000e+003  9.9900000e+002  9.7100000e+002  9.7600000e+002  9.8100000e+002  9.8100000e+002  9.7800000e+002  9.8000000e+002  9.8200000e+002  9.7700000e+002  9.7700000e+002  9.7700000e+002  9.7800000e+002  9.7900000e+002  9.8200000e+002  9.8100000e+002  9.7900000e+002  9.7600000e+002  9.7400000e+002  9.7800000e+002  9.7800000e+002  9.7900000e+002  9.7800000e+002  9.7600000e+002  9.7700000e+002  9.7800000e+002  9.7900000e+002  9.7800000e+002  9.7500000e+002  9.7700000e+002  9.7700000e+002  9.8000000e+002  9.8000000e+002  9.7900000e+002  9.7800000e+002  9.7500000e+002  9.7900000e+002  9.8000000e+002  9.8200000e+002  9.8200000e+002  9.8000000e+002  9.7600000e+002  9.7700000e+002  9.7900000e+002  9.8200000e+002  9.8400000e+002  9.7900000e+002  9.7900000e+002  9.7900000e+002  9.7900000e+002  9.8100000e+002  9.8100000e+002  9.7700000e+002  9.7600000e+002  9.7600000e+002  9.7700000e+002  9.8000000e+002  9.7900000e+002  9.7700000e+002  9.7500000e+002  9.7500000e+002  9.7800000e+002  9.7900000e+002  9.8000000e+002  9.7500000e+002  9.7400000e+002  9.7300000e+002  9.7300000e+002  9.7600000e+002  9.7400000e+002  9.7200000e+002  9.6900000e+002  9.6700000e+002  9.6900000e+002  9.6800000e+002  9.6600000e+002  9.6400000e+002  9.6300000e+002  9.6100000e+002  9.6200000e+002  9.6100000e+002  9.5900000e+002  9.5700000e+002  9.5400000e+002  9.5500000e+002  9.5600000e+002  9.5700000e+002  9.5400000e+002  9.5200000e+002  9.5000000e+002  9.5100000e+002  9.5200000e+002  9.5500000e+002  9.5600000e+002  9.5400000e+002  9.5300000e+002  9.5500000e+002  9.5900000e+002  9.6300000e+002  9.6400000e+002  9.6700000e+002  9.6700000e+002  9.6800000e+002  9.7100000e+002  9.7800000e+002  9.7700000e+002  9.7600000e+002  9.7500000e+002  9.7900000e+002  9.8100000e+002  9.8500000e+002  9.8800000e+002  9.8800000e+002  9.8600000e+002  9.8800000e+002  9.9100000e+002  9.9600000e+002  9.9300000e+002  9.9100000e+002  9.9200000e+002  9.9300000e+002  9.9500000e+002  9.9700000e+002  9.9400000e+002  9.9100000e+002  9.9000000e+002  9.9400000e+002  9.9500000e+002  9.9500000e+002  9.9500000e+002  9.9200000e+002  9.9000000e+002  9.9000000e+002  9.9300000e+002  9.9700000e+002  9.9500000e+002  9.9300000e+002  9.9100000e+002  9.8800000e+002  9.9100000e+002  9.9400000e+002  9.9200000e+002  9.9400000e+002  9.9000000e+002  9.8900000e+002  9.9100000e+002  9.9300000e+002  9.9100000e+002  9.8900000e+002  9.8800000e+002  9.8900000e+002  9.9100000e+002  9.9200000e+002  9.9100000e+002  9.8700000e+002  9.8500000e+002  9.8700000e+002  9.8700000e+002  9.9000000e+002  9.8900000e+002  9.9000000e+002  9.8700000e+002  9.8800000e+002  9.8700000e+002  9.8800000e+002  9.8900000e+002  9.8700000e+002  9.8600000e+002  9.8700000e+002  9.9000000e+002  9.9200000e+002  9.8700000e+002  9.8700000e+002  9.8600000e+002  9.8400000e+002  9.8500000e+002  9.9100000e+002  9.8900000e+002  9.8800000e+002  9.8600000e+002  9.8500000e+002  9.8600000e+002  9.9200000e+002  9.8900000e+002  9.9100000e+002  9.8700000e+002  9.8800000e+002  9.8800000e+002  9.9300000e+002  9.9000000e+002  9.8800000e+002  9.8800000e+002  9.8700000e+002  9.9100000e+002  9.9400000e+002  9.9200000e+002  9.9100000e+002  9.8800000e+002  9.8800000e+002  9.9100000e+002  9.9400000e+002  9.9300000e+002  9.9300000e+002  9.9000000e+002  9.8900000e+002  9.9100000e+002  9.9300000e+002  9.9400000e+002  9.9300000e+002  9.9100000e+002  9.9100000e+002  9.9200000e+002  9.9200000e+002  9.9100000e+002  9.9000000e+002  9.8900000e+002  9.9200000e+002  9.9700000e+002  9.9600000e+002  9.9500000e+002  9.9600000e+002  9.9500000e+002  9.9700000e+002  9.9900000e+002  1.0010000e+003  1.0010000e+003  9.9900000e+002  9.9800000e+002  1.0030000e+003  1.0050000e+003  1.0050000e+003  1.0050000e+003  1.0050000e+003  1.0050000e+003  1.0010000e+003  1.0000000e+003  1.0000000e+003  9.9800000e+002  9.9700000e+002  9.9900000e+002  9.9600000e+002  9.9700000e+002  1.0000000e+003  9.9400000e+002  9.9400000e+002  9.9300000e+002  9.9200000e+002  9.9500000e+002  9.9600000e+002  9.9500000e+002  9.9500000e+002  9.9200000e+002  9.9100000e+002  9.9300000e+002  9.9500000e+002  9.9300000e+002  9.9300000e+002  9.9000000e+002  9.9100000e+002  9.9200000e+002  9.9300000e+002  9.9200000e+002  9.9000000e+002  9.9000000e+002  9.9100000e+002  9.9100000e+002  9.9500000e+002  9.9000000e+002  9.8600000e+002  9.7900000e+002  9.7400000e+002  9.7000000e+002  9.6800000e+002  9.6300000e+002  9.6600000e+002  9.8400000e+002  1.0090000e+003  1.0320000e+003  1.0510000e+003  1.0670000e+003  1.0880000e+003  1.1110000e+003  1.1320000e+003  1.1400000e+003  1.1170000e+003  1.0530000e+003  9.9300000e+002  9.6700000e+002  9.7400000e+002  9.8400000e+002  9.8800000e+002  9.8600000e+002  9.8600000e+002  9.8700000e+002  9.8500000e+002  9.8700000e+002  9.8900000e+002  9.8600000e+002  9.8500000e+002  9.8300000e+002  9.8300000e+002  9.8700000e+002  9.9100000e+002  9.8700000e+002  9.8600000e+002  9.8200000e+002  9.8200000e+002  9.8400000e+002  9.8600000e+002  9.8700000e+002  9.8500000e+002  9.8200000e+002  9.8200000e+002  9.8600000e+002  9.8800000e+002  9.8600000e+002  9.8500000e+002  9.8100000e+002  9.8100000e+002  9.8500000e+002  9.8700000e+002  9.8800000e+002  9.8700000e+002  9.8400000e+002  9.8300000e+002  9.8600000e+002  9.8800000e+002  9.8700000e+002  9.8500000e+002  9.8500000e+002  9.8500000e+002  9.8600000e+002  9.8700000e+002  9.8500000e+002  9.8500000e+002  9.8300000e+002  9.8400000e+002  9.8600000e+002  9.8700000e+002  9.8500000e+002  9.8200000e+002  9.8100000e+002  9.8100000e+002  9.8300000e+002  9.8600000e+002  9.8600000e+002  9.8300000e+002  9.8000000e+002  9.8100000e+002  9.8300000e+002  9.8200000e+002  9.8000000e+002  9.7800000e+002  9.7600000e+002  9.7300000e+002  9.7600000e+002  9.7900000e+002  9.7800000e+002  9.7400000e+002  9.7400000e+002  9.7200000e+002  9.7200000e+002  9.7300000e+002  9.7200000e+002  9.6700000e+002  9.6500000e+002  9.6400000e+002  9.6700000e+002  9.6800000e+002  9.6600000e+002  9.6300000e+002  9.6100000e+002  9.6000000e+002  9.6200000e+002  9.6300000e+002  9.6200000e+002  9.6000000e+002  9.5900000e+002  9.5700000e+002  9.6000000e+002  9.6400000e+002  9.6400000e+002  9.6400000e+002  9.6700000e+002  9.6800000e+002  9.7200000e+002  9.7600000e+002  9.7700000e+002  9.7900000e+002  9.7800000e+002  9.7900000e+002  9.8600000e+002  9.8800000e+002  9.8700000e+002  9.8800000e+002  9.8500000e+002  9.8800000e+002  9.9000000e+002  9.9200000e+002  9.9000000e+002  9.9000000e+002  9.8800000e+002  9.8800000e+002  9.9000000e+002  9.9300000e+002  9.9300000e+002  9.9200000e+002  9.8800000e+002  9.8900000e+002  9.9100000e+002  9.9200000e+002  9.9000000e+002  9.8900000e+002  9.8600000e+002  9.8600000e+002  9.8900000e+002  9.9100000e+002  9.8900000e+002  9.8800000e+002  9.8700000e+002  9.8700000e+002  9.8700000e+002  9.9100000e+002  9.8700000e+002  9.8700000e+002  9.8300000e+002  9.8200000e+002  9.8500000e+002  9.9000000e+002  9.8800000e+002  9.8700000e+002  9.8600000e+002  9.8400000e+002  9.8400000e+002  9.8500000e+002  9.8400000e+002  9.8300000e+002  9.8200000e+002  9.8100000e+002  9.8300000e+002  9.8300000e+002  9.8000000e+002  9.8100000e+002  9.7900000e+002  9.8100000e+002  9.8200000e+002  9.8600000e+002  9.8300000e+002  9.8100000e+002  9.8000000e+002  9.7900000e+002  9.8200000e+002  9.8400000e+002  9.8300000e+002  9.8100000e+002  9.8000000e+002  9.7900000e+002  9.8100000e+002  9.8300000e+002  9.8500000e+002  9.8100000e+002  9.7800000e+002  9.7700000e+002  9.8000000e+002  9.8300000e+002  9.8000000e+002  9.7800000e+002  9.7600000e+002  9.7700000e+002  9.8100000e+002  9.8200000e+002  9.8300000e+002  9.8300000e+002  9.8200000e+002  9.8100000e+002  9.8000000e+002  9.8300000e+002  9.8000000e+002  9.7800000e+002  9.7900000e+002  9.7900000e+002  9.8500000e+002  9.8500000e+002  9.8000000e+002  9.7800000e+002  9.7400000e+002  9.7600000e+002  9.7900000e+002  9.8200000e+002  9.8200000e+002  9.7800000e+002  9.7700000e+002  9.7600000e+002  9.8200000e+002  9.8500000e+002  9.8500000e+002  9.8600000e+002  9.8400000e+002  9.8500000e+002  9.8800000e+002  9.8800000e+002  9.8600000e+002  9.8600000e+002  9.8800000e+002  9.8700000e+002  9.9100000e+002  9.9100000e+002  9.8900000e+002  9.8700000e+002  9.8400000e+002  9.8500000e+002  9.8700000e+002  9.8800000e+002  9.8500000e+002  9.8500000e+002  9.8100000e+002  9.8400000e+002  9.8200000e+002  9.8500000e+002  9.7900000e+002  9.7700000e+002  9.7500000e+002  9.7500000e+002  9.8000000e+002  9.7800000e+002  9.8000000e+002  9.7900000e+002  9.7600000e+002  9.7900000e+002  9.8200000e+002  9.8000000e+002  9.7800000e+002  9.7800000e+002  9.7600000e+002  9.7500000e+002  9.7500000e+002  9.7600000e+002  9.7700000e+002  9.7600000e+002  9.7300000e+002  9.7300000e+002  9.7400000e+002  9.7800000e+002  9.7600000e+002  9.7400000e+002  9.7100000e+002  9.6600000e+002  9.6200000e+002  9.6300000e+002  9.5700000e+002  9.5300000e+002  9.5700000e+002  9.7000000e+002  9.9200000e+002  1.0140000e+003  1.0260000e+003  1.0370000e+003  1.0510000e+003  1.0720000e+003  1.0950000e+003  1.1030000e+003  1.0750000e+003  1.0210000e+003  9.6500000e+002  9.4300000e+002  9.4600000e+002  9.5600000e+002  9.6300000e+002  9.6200000e+002  9.6500000e+002  9.6500000e+002  9.6800000e+002  9.7000000e+002  9.7100000e+002  9.6700000e+002  9.6600000e+002  9.6600000e+002  9.6600000e+002  9.6700000e+002  9.6600000e+002  9.6600000e+002  9.6700000e+002  9.6700000e+002  9.6700000e+002  9.7100000e+002  9.7100000e+002  9.6900000e+002  9.6700000e+002  9.6800000e+002  9.7000000e+002  9.7000000e+002  9.6900000e+002  9.7000000e+002  9.6700000e+002  9.6400000e+002  9.6800000e+002  9.6900000e+002  9.6700000e+002  9.6700000e+002  9.6500000e+002  9.6600000e+002  9.6700000e+002
